"id","value","timestamp"
"1","527","2024-12-01 20:24:53"
"2","521","2024-12-01 20:24:53"
"3","522","2024-12-01 20:24:54"
"4","524","2024-12-01 20:24:54"
"5","484","2024-12-01 20:24:54"
"6","460","2024-12-01 20:24:55"
"7","541","2024-12-01 20:24:55"
"8","500","2024-12-01 20:24:55"
"9","529","2024-12-01 20:24:56"
"10","598","2024-12-01 20:24:56"
"11","499","2024-12-01 20:24:56"
"12","500","2024-12-01 20:24:56"
"13","718","2024-12-01 20:24:57"
"14","488","2024-12-01 20:24:57"
"15","497","2024-12-01 20:24:57"
"16","628","2024-12-01 20:24:58"
"17","506","2024-12-01 20:24:58"
"18","538","2024-12-01 20:24:58"
"19","497","2024-12-01 20:24:59"
"20","514","2024-12-01 20:24:59"
"21","493","2024-12-01 20:24:59"
"22","517","2024-12-01 20:24:59"
"23","526","2024-12-01 20:25:00"
"24","467","2024-12-01 20:25:00"
"25","504","2024-12-01 20:25:00"
"26","487","2024-12-01 20:25:01"
"27","478","2024-12-01 20:25:01"
"28","476","2024-12-01 20:25:01"
"29","505","2024-12-01 20:25:01"
"30","511","2024-12-01 20:25:02"
"31","534","2024-12-01 20:25:02"
"32","475","2024-12-01 20:25:02"
"33","519","2024-12-01 20:25:03"
"34","501","2024-12-01 20:25:03"
"35","496","2024-12-01 20:25:03"
"36","510","2024-12-01 20:25:04"
"37","794","2024-12-01 20:25:04"
"38","494","2024-12-01 20:25:04"
"39","514","2024-12-01 20:25:05"
"40","478","2024-12-01 20:25:05"
"41","481","2024-12-01 20:25:05"
"42","570","2024-12-01 20:25:05"
"43","467","2024-12-01 20:25:06"
"44","507","2024-12-01 20:25:06"
"45","805","2024-12-01 20:25:06"
"46","517","2024-12-01 20:25:07"
"47","557","2024-12-01 20:25:07"
"48","460","2024-12-01 20:25:07"
"49","724","2024-12-01 20:25:08"
"50","494","2024-12-01 20:25:08"
"51","452","2024-12-01 20:25:08"
"52","511","2024-12-01 20:25:09"
"53","477","2024-12-01 20:25:09"
"54","548","2024-12-01 20:25:09"
"55","512","2024-12-01 20:25:09"
"56","510","2024-12-01 20:25:10"
"57","493","2024-12-01 20:25:10"
"58","540","2024-12-01 20:25:10"
"59","482","2024-12-01 20:25:10"
"60","468","2024-12-01 20:25:11"
"61","545","2024-12-01 20:25:11"
"62","453","2024-12-01 20:25:11"
"63","526","2024-12-01 20:25:12"
"64","498","2024-12-01 20:25:12"
"65","498","2024-12-01 20:25:12"
"66","527","2024-12-01 20:25:13"
"67","534","2024-12-01 20:25:13"
"68","539","2024-12-01 20:25:13"
"69","502","2024-12-01 20:25:13"
"70","764","2024-12-01 20:25:14"
"71","428","2024-12-01 20:25:14"
"72","332","2024-12-01 20:25:14"
"73","485","2024-12-01 20:25:15"
"74","667","2024-12-01 20:25:15"
"75","624","2024-12-01 20:25:15"
"76","770","2024-12-01 20:25:16"
"77","489","2024-12-01 20:25:16"
"78","483","2024-12-01 20:25:16"
"79","488","2024-12-01 20:25:17"
"80","526","2024-12-01 20:25:17"
"81","521","2024-12-01 20:25:17"
"82","532","2024-12-01 20:25:18"
"83","858","2024-12-01 20:25:18"
"84","466","2024-12-01 20:25:18"
"85","522","2024-12-01 20:25:18"
"86","693","2024-12-01 20:25:19"
"87","492","2024-12-01 20:25:19"
"88","471","2024-12-01 20:25:19"
"89","553","2024-12-01 20:25:20"
"90","554","2024-12-01 20:25:20"
"91","487","2024-12-01 20:25:20"
"92","486","2024-12-01 20:25:20"
"93","564","2024-12-01 20:25:21"
"94","492","2024-12-01 20:25:21"
"95","463","2024-12-01 20:25:21"
"96","482","2024-12-01 20:25:22"
"97","510","2024-12-01 20:25:22"
"98","451","2024-12-01 20:25:22"
"99","484","2024-12-01 20:25:22"
"100","432","2024-12-01 20:25:23"
"101","475","2024-12-01 20:25:23"
"102","498","2024-12-01 20:25:23"
"103","533","2024-12-01 20:25:24"
"104","491","2024-12-01 20:25:24"
"105","473","2024-12-01 20:25:24"
"106","493","2024-12-01 20:25:25"
"107","499","2024-12-01 20:25:25"
"108","807","2024-12-01 20:25:25"
"109","483","2024-12-01 20:25:26"
"110","538","2024-12-01 20:25:26"
"111","556","2024-12-01 20:25:26"
"112","519","2024-12-01 20:25:27"
"113","491","2024-12-01 20:25:27"
"114","501","2024-12-01 20:25:27"
"115","546","2024-12-01 20:25:28"
"116","468","2024-12-01 20:25:28"
"117","524","2024-12-01 20:25:28"
"118","541","2024-12-01 20:25:28"
"119","537","2024-12-01 20:25:29"
"120","506","2024-12-01 20:25:29"
"121","490","2024-12-01 20:25:29"
"122","546","2024-12-01 20:25:30"
"123","533","2024-12-01 20:25:30"
"124","525","2024-12-01 20:25:30"
"125","487","2024-12-01 20:25:31"
"126","514","2024-12-01 20:25:31"
"127","859","2024-12-01 20:25:31"
"128","508","2024-12-01 20:25:31"
"129","514","2024-12-01 20:25:32"
"130","484","2024-12-01 20:25:32"
"131","506","2024-12-01 20:25:32"
"132","509","2024-12-01 20:25:33"
"133","496","2024-12-01 20:25:33"
"134","505","2024-12-01 20:25:33"
"135","478","2024-12-01 20:25:34"
"136","469","2024-12-01 20:25:34"
"137","512","2024-12-01 20:25:34"
"138","540","2024-12-01 20:25:34"
"139","571","2024-12-01 20:25:35"
"140","517","2024-12-01 20:25:35"
"141","472","2024-12-01 20:25:35"
"142","499","2024-12-01 20:25:36"
"143","619","2024-12-01 20:25:36"
"144","573","2024-12-01 20:25:36"
"145","524","2024-12-01 20:25:36"
"146","288","2024-12-01 20:25:37"
"147","256","2024-12-01 20:25:37"
"148","260","2024-12-01 20:25:37"
"149","703","2024-12-01 20:25:38"
"150","531","2024-12-01 20:25:38"
"151","367","2024-12-01 20:25:38"
"152","739","2024-12-01 20:25:39"
"153","586","2024-12-01 20:25:39"
"154","536","2024-12-01 20:25:39"
"155","517","2024-12-01 20:25:39"
"156","469","2024-12-01 20:25:40"
"157","419","2024-12-01 20:25:40"
"158","555","2024-12-01 20:25:40"
"159","491","2024-12-01 20:25:41"
"160","575","2024-12-01 20:25:41"
"161","529","2024-12-01 20:25:41"
"162","510","2024-12-01 20:25:42"
"163","413","2024-12-01 20:25:42"
"164","480","2024-12-01 20:25:42"
"165","397","2024-12-01 20:25:42"
"166","479","2024-12-01 20:25:43"
"167","529","2024-12-01 20:25:43"
"168","847","2024-12-01 20:25:43"
"169","509","2024-12-01 20:25:44"
"170","496","2024-12-01 20:25:44"
"171","479","2024-12-01 20:25:44"
"172","509","2024-12-01 20:25:45"
"173","485","2024-12-01 20:25:45"
"174","478","2024-12-01 20:25:45"
"175","501","2024-12-01 20:25:45"
"176","496","2024-12-01 20:25:46"
"177","526","2024-12-01 20:25:46"
"178","496","2024-12-01 20:25:46"
"179","489","2024-12-01 20:25:46"
"180","519","2024-12-01 20:25:47"
"181","494","2024-12-01 20:25:47"
"182","479","2024-12-01 20:25:47"
"183","538","2024-12-01 20:25:48"
"184","531","2024-12-01 20:25:48"
"185","480","2024-12-01 20:25:48"
"186","644","2024-12-01 20:25:49"
"187","511","2024-12-01 20:25:49"
"188","522","2024-12-01 20:25:49"
"189","752","2024-12-01 20:25:49"
"190","534","2024-12-01 20:25:50"
"191","530","2024-12-01 20:25:50"
"192","459","2024-12-01 20:25:50"
"193","496","2024-12-01 20:25:51"
"194","521","2024-12-01 20:25:51"
"195","758","2024-12-01 20:25:51"
"196","465","2024-12-01 20:25:51"
"197","495","2024-12-01 20:25:52"
"198","457","2024-12-01 20:25:52"
"199","520","2024-12-01 20:25:52"
"200","552","2024-12-01 20:25:53"
"201","543","2024-12-01 20:25:53"
"202","491","2024-12-01 20:25:53"
"203","527","2024-12-01 20:25:54"
"204","473","2024-12-01 20:25:54"
"205","518","2024-12-01 20:25:54"
"206","471","2024-12-01 20:25:54"
"207","494","2024-12-01 20:25:55"
"208","500","2024-12-01 20:25:55"
"209","481","2024-12-01 20:25:55"
"210","481","2024-12-01 20:25:55"
"211","807","2024-12-01 20:25:56"
"212","521","2024-12-01 20:25:56"
"213","493","2024-12-01 20:25:56"
"214","491","2024-12-01 20:25:57"
"215","513","2024-12-01 20:25:57"
"216","468","2024-12-01 20:25:57"
"217","511","2024-12-01 20:25:58"
"218","818","2024-12-01 20:25:58"
"219","491","2024-12-01 20:25:58"
"220","516","2024-12-01 20:25:59"
"221","469","2024-12-01 20:25:59"
"222","515","2024-12-01 20:25:59"
"223","610","2024-12-01 20:25:59"
"224","505","2024-12-01 20:26:00"
"225","501","2024-12-01 20:26:00"
"226","481","2024-12-01 20:26:00"
"227","499","2024-12-01 20:26:01"
"228","528","2024-12-01 20:26:01"
"229","528","2024-12-01 20:26:01"
"230","457","2024-12-01 20:26:02"
"231","491","2024-12-01 20:26:02"
"232","517","2024-12-01 20:26:02"
"233","463","2024-12-01 20:26:03"
"234","500","2024-12-01 20:26:03"
"235","490","2024-12-01 20:26:03"
"236","477","2024-12-01 20:26:03"
"237","504","2024-12-01 20:26:04"
"238","524","2024-12-01 20:26:04"
"239","484","2024-12-01 20:26:04"
"240","489","2024-12-01 20:26:05"
"241","522","2024-12-01 20:26:05"
"242","472","2024-12-01 20:26:05"
"243","514","2024-12-01 20:26:06"
"244","465","2024-12-01 20:26:06"
"245","469","2024-12-01 20:26:06"
"246","488","2024-12-01 20:26:06"
"247","515","2024-12-01 20:26:07"
"248","544","2024-12-01 20:26:07"
"249","502","2024-12-01 20:26:07"
"250","499","2024-12-01 20:26:08"
"251","540","2024-12-01 20:26:08"
"252","478","2024-12-01 20:26:08"
"253","485","2024-12-01 20:26:09"
"254","472","2024-12-01 20:26:09"
"255","480","2024-12-01 20:26:09"
"256","500","2024-12-01 20:26:09"
"257","483","2024-12-01 20:26:10"
"258","517","2024-12-01 20:26:10"
"259","709","2024-12-01 20:26:10"
"260","482","2024-12-01 20:26:11"
"261","503","2024-12-01 20:26:11"
"262","486","2024-12-01 20:26:11"
"263","486","2024-12-01 20:26:11"
"264","525","2024-12-01 20:26:12"
"265","688","2024-12-01 20:26:12"
"266","498","2024-12-01 20:26:12"
"267","479","2024-12-01 20:26:12"
"268","657","2024-12-01 20:26:13"
"269","477","2024-12-01 20:26:13"
"270","516","2024-12-01 20:26:13"
"271","568","2024-12-01 20:26:14"
"272","497","2024-12-01 20:26:14"
"273","532","2024-12-01 20:26:14"
"274","500","2024-12-01 20:26:15"
"275","513","2024-12-01 20:26:15"
"276","696","2024-12-01 20:26:15"
"277","536","2024-12-01 20:26:16"
"278","510","2024-12-01 20:26:16"
"279","507","2024-12-01 20:26:16"
"280","512","2024-12-01 20:26:16"
"281","524","2024-12-01 20:26:17"
"282","501","2024-12-01 20:26:17"
"283","511","2024-12-01 20:26:17"
"284","542","2024-12-01 20:26:17"
"285","547","2024-12-01 20:26:18"
"286","510","2024-12-01 20:26:18"
"287","496","2024-12-01 20:26:18"
"288","494","2024-12-01 20:26:19"
"289","528","2024-12-01 20:26:19"
"290","478","2024-12-01 20:26:19"
"291","492","2024-12-01 20:26:19"
"292","472","2024-12-01 20:26:20"
"293","503","2024-12-01 20:26:20"
"294","484","2024-12-01 20:26:20"
"295","456","2024-12-01 20:26:21"
"296","476","2024-12-01 20:26:21"
"297","502","2024-12-01 20:26:21"
"298","461","2024-12-01 20:26:22"
"299","496","2024-12-01 20:26:22"
"300","525","2024-12-01 20:26:22"
"301","541","2024-12-01 20:26:22"
"302","484","2024-12-01 20:26:23"
"303","511","2024-12-01 20:26:23"
"304","493","2024-12-01 20:26:23"
"305","522","2024-12-01 20:26:24"
"306","489","2024-12-01 20:26:24"
"307","482","2024-12-01 20:26:24"
"308","505","2024-12-01 20:26:25"
"309","508","2024-12-01 20:26:25"
"310","500","2024-12-01 20:26:25"
"311","531","2024-12-01 20:26:25"
"312","498","2024-12-01 20:26:26"
"313","487","2024-12-01 20:26:26"
"314","521","2024-12-01 20:26:26"
"315","556","2024-12-01 20:26:27"
"316","525","2024-12-01 20:26:27"
"317","499","2024-12-01 20:26:27"
"318","495","2024-12-01 20:26:27"
"319","475","2024-12-01 20:26:28"
"320","558","2024-12-01 20:26:28"
"321","536","2024-12-01 20:26:28"
"322","514","2024-12-01 20:26:29"
"323","481","2024-12-01 20:26:29"
"324","536","2024-12-01 20:26:29"
"325","521","2024-12-01 20:26:29"
"326","492","2024-12-01 20:26:30"
"327","636","2024-12-01 20:26:30"
"328","510","2024-12-01 20:26:30"
"329","749","2024-12-01 20:26:31"
"330","500","2024-12-01 20:26:31"
"331","758","2024-12-01 20:26:31"
"332","497","2024-12-01 20:26:31"
"333","540","2024-12-01 20:26:32"
"334","530","2024-12-01 20:26:32"
"335","398","2024-12-01 20:26:32"
"336","795","2024-12-01 20:26:33"
"337","749","2024-12-01 20:26:33"
"338","741","2024-12-01 20:26:33"
"339","489","2024-12-01 20:26:34"
"340","497","2024-12-01 20:26:34"
"341","496","2024-12-01 20:26:34"
"342","505","2024-12-01 20:26:34"
"343","462","2024-12-01 20:26:35"
"344","547","2024-12-01 20:26:35"
"345","483","2024-12-01 20:26:35"
"346","449","2024-12-01 20:26:36"
"347","561","2024-12-01 20:26:36"
"348","258","2024-12-01 20:26:36"
"349","472","2024-12-01 20:26:37"
"350","478","2024-12-01 20:26:37"
"351","547","2024-12-01 20:26:37"
"352","515","2024-12-01 20:26:37"
"353","578","2024-12-01 20:26:38"
"354","527","2024-12-01 20:26:38"
"355","803","2024-12-01 20:26:38"
"356","519","2024-12-01 20:26:39"
"357","523","2024-12-01 20:26:39"
"358","506","2024-12-01 20:26:39"
"359","502","2024-12-01 20:26:40"
"360","486","2024-12-01 20:26:40"
"361","530","2024-12-01 20:26:40"
"362","565","2024-12-01 20:26:40"
"363","512","2024-12-01 20:26:41"
"364","535","2024-12-01 20:26:41"
"365","488","2024-12-01 20:26:41"
"366","521","2024-12-01 20:26:42"
"367","492","2024-12-01 20:26:42"
"368","562","2024-12-01 20:26:42"
"369","494","2024-12-01 20:26:42"
"370","494","2024-12-01 20:26:43"
"371","507","2024-12-01 20:26:43"
"372","548","2024-12-01 20:26:43"
"373","532","2024-12-01 20:26:44"
"374","543","2024-12-01 20:26:44"
"375","484","2024-12-01 20:26:44"
"376","529","2024-12-01 20:26:44"
"377","483","2024-12-01 20:26:45"
"378","482","2024-12-01 20:26:45"
"379","490","2024-12-01 20:26:45"
"380","496","2024-12-01 20:26:45"
"381","492","2024-12-01 20:26:46"
"382","484","2024-12-01 20:26:46"
"383","475","2024-12-01 20:26:46"
"384","484","2024-12-01 20:26:48"
"385","537","2024-12-01 20:26:54"
"389","491","2024-12-01 20:27:01"
"390","525","2024-12-01 20:27:01"
"391","504","2024-12-01 20:27:02"
"392","478","2024-12-01 20:27:02"
"393","508","2024-12-01 20:27:02"
"394","475","2024-12-01 20:27:03"
"395","486","2024-12-01 20:27:03"
"396","493","2024-12-01 20:27:03"
"397","463","2024-12-01 20:27:04"
"398","507","2024-12-01 20:27:04"
"399","614","2024-12-01 20:27:04"
"400","570","2024-12-01 20:27:05"
"401","512","2024-12-01 20:27:05"
"402","482","2024-12-01 20:27:05"
"403","520","2024-12-01 20:27:05"
"404","513","2024-12-01 20:27:06"
"405","506","2024-12-01 20:27:06"
"406","503","2024-12-01 20:27:06"
"407","495","2024-12-01 20:27:06"
"408","468","2024-12-01 20:27:07"
"409","505","2024-12-01 20:27:07"
"410","546","2024-12-01 20:27:07"
"411","557","2024-12-01 20:27:08"
"412","494","2024-12-01 20:27:08"
"413","473","2024-12-01 20:27:08"
"414","478","2024-12-01 20:27:09"
"415","492","2024-12-01 20:27:09"
"416","497","2024-12-01 20:27:09"
"417","490","2024-12-01 20:27:10"
"418","486","2024-12-01 20:27:10"
"419","522","2024-12-01 20:27:10"
"420","529","2024-12-01 20:27:10"
"421","506","2024-12-01 20:27:11"
"422","476","2024-12-01 20:27:11"
"423","514","2024-12-01 20:27:11"
"424","536","2024-12-01 20:27:12"
"425","516","2024-12-01 20:27:12"
"426","462","2024-12-01 20:27:12"
"427","518","2024-12-01 20:27:12"
"428","501","2024-12-01 20:27:13"
"429","495","2024-12-01 20:27:13"
"430","494","2024-12-01 20:27:14"
"431","746","2024-12-01 20:27:14"
"432","511","2024-12-01 20:27:14"
"433","499","2024-12-01 20:27:14"
"434","507","2024-12-01 20:27:15"
"435","496","2024-12-01 20:27:15"
"436","528","2024-12-01 20:27:15"
"437","527","2024-12-01 20:27:15"
"438","497","2024-12-01 20:27:16"
"439","500","2024-12-01 20:27:16"
"440","697","2024-12-01 20:27:16"
"441","479","2024-12-01 20:27:17"
"442","500","2024-12-01 20:27:17"
"443","479","2024-12-01 20:27:17"
"444","481","2024-12-01 20:27:18"
"445","692","2024-12-01 20:27:18"
"446","513","2024-12-01 20:27:18"
"447","513","2024-12-01 20:27:19"
"448","507","2024-12-01 20:27:19"
"449","561","2024-12-01 20:27:19"
"450","483","2024-12-01 20:27:19"
"451","523","2024-12-01 20:27:20"
"452","496","2024-12-01 20:27:20"
"453","523","2024-12-01 20:27:20"
"454","500","2024-12-01 20:27:21"
"455","495","2024-12-01 20:27:21"
"456","534","2024-12-01 20:27:21"
"457","499","2024-12-01 20:27:22"
"458","492","2024-12-01 20:27:22"
"459","519","2024-12-01 20:27:22"
"460","474","2024-12-01 20:27:23"
"461","508","2024-12-01 20:27:23"
"462","519","2024-12-01 20:27:23"
"463","521","2024-12-01 20:27:24"
"464","595","2024-12-01 20:27:24"
"465","543","2024-12-01 20:27:24"
"466","503","2024-12-01 20:27:24"
"467","872","2024-12-01 20:27:25"
"468","526","2024-12-01 20:27:25"
"469","494","2024-12-01 20:27:25"
"470","464","2024-12-01 20:27:25"
"471","521","2024-12-01 20:27:26"
"472","496","2024-12-01 20:27:26"
"473","453","2024-12-01 20:27:26"
"474","503","2024-12-01 20:27:27"
"475","509","2024-12-01 20:27:27"
"476","507","2024-12-01 20:27:27"
"477","515","2024-12-01 20:27:28"
"478","474","2024-12-01 20:27:28"
"479","511","2024-12-01 20:27:28"
"480","714","2024-12-01 20:27:29"
"481","502","2024-12-01 20:27:29"
"482","518","2024-12-01 20:27:29"
"483","669","2024-12-01 20:27:29"
"484","529","2024-12-01 20:27:30"
"485","513","2024-12-01 20:27:30"
"486","486","2024-12-01 20:27:30"
"487","505","2024-12-01 20:27:31"
"488","543","2024-12-01 20:27:31"
"489","522","2024-12-01 20:27:31"
"490","501","2024-12-01 20:27:32"
"491","495","2024-12-01 20:27:32"
"492","493","2024-12-01 20:27:32"
"493","512","2024-12-01 20:27:32"
"494","761","2024-12-01 20:27:33"
"495","477","2024-12-01 20:27:33"
"496","523","2024-12-01 20:27:33"
"497","468","2024-12-01 20:27:34"
"498","478","2024-12-01 20:27:34"
"499","530","2024-12-01 20:27:34"
"500","466","2024-12-01 20:27:34"
"501","488","2024-12-01 20:27:35"
"502","539","2024-12-01 20:27:35"
"503","484","2024-12-01 20:27:35"
"504","501","2024-12-01 20:27:36"
"505","595","2024-12-01 20:27:36"
"506","482","2024-12-01 20:27:36"
"507","515","2024-12-01 20:27:37"
"508","491","2024-12-01 20:27:37"
"509","489","2024-12-01 20:27:37"
"510","505","2024-12-01 20:27:38"
"511","514","2024-12-01 20:27:38"
"512","516","2024-12-01 20:27:38"
"513","489","2024-12-01 20:27:39"
"514","512","2024-12-01 20:27:39"
"515","598","2024-12-01 20:27:39"
"516","489","2024-12-01 20:27:40"
"517","520","2024-12-01 20:27:40"
"518","603","2024-12-01 20:27:40"
"519","532","2024-12-01 20:27:40"
"520","499","2024-12-01 20:27:41"
"521","468","2024-12-01 20:27:41"
"522","485","2024-12-01 20:27:41"
"523","515","2024-12-01 20:27:42"
"524","466","2024-12-01 20:27:42"
"525","510","2024-12-01 20:27:42"
"526","773","2024-12-01 20:27:42"
"527","507","2024-12-01 20:27:43"
"528","524","2024-12-01 20:27:43"
"529","457","2024-12-01 20:27:43"
"530","527","2024-12-01 20:27:44"
"531","490","2024-12-01 20:27:44"
"532","602","2024-12-01 20:27:44"
"533","496","2024-12-01 20:27:44"
"534","502","2024-12-01 20:27:45"
"535","496","2024-12-01 20:27:45"
"536","496","2024-12-01 20:27:45"
"537","501","2024-12-01 20:27:45"
"538","468","2024-12-01 20:27:46"
"539","541","2024-12-01 20:27:46"
"540","513","2024-12-01 20:27:46"
"541","590","2024-12-01 20:27:47"
"542","484","2024-12-01 20:27:47"
"543","484","2024-12-01 20:27:47"
"544","490","2024-12-01 20:27:47"
"545","518","2024-12-01 20:27:48"
"546","554","2024-12-01 20:27:48"
"547","471","2024-12-01 20:27:48"
"548","690","2024-12-01 20:27:49"
"549","658","2024-12-01 20:27:49"
"550","453","2024-12-01 20:27:49"
"551","462","2024-12-01 20:27:49"
"552","709","2024-12-01 20:27:50"
"553","546","2024-12-01 20:27:50"
"554","464","2024-12-01 20:27:50"
"555","535","2024-12-01 20:27:50"
"556","521","2024-12-01 20:27:51"
"557","495","2024-12-01 20:27:51"
"558","584","2024-12-01 20:27:51"
"559","531","2024-12-01 20:27:51"
"560","507","2024-12-01 20:27:52"
"561","531","2024-12-01 20:27:52"
"562","469","2024-12-01 20:27:52"
"563","588","2024-12-01 20:27:52"
"564","451","2024-12-01 20:27:53"
"565","542","2024-12-01 20:27:53"
"566","470","2024-12-01 20:27:53"
"567","568","2024-12-01 20:27:54"
"568","475","2024-12-01 20:27:54"
"569","679","2024-12-01 20:27:54"
"570","496","2024-12-01 20:27:54"
"571","547","2024-12-01 20:27:55"
"572","445","2024-12-01 20:27:55"
"573","480","2024-12-01 20:27:55"
"574","740","2024-12-01 20:27:56"
"575","493","2024-12-01 20:27:56"
"576","451","2024-12-01 20:27:56"
"577","491","2024-12-01 20:27:57"
"578","550","2024-12-01 20:27:57"
"579","465","2024-12-01 20:27:57"
"580","533","2024-12-01 20:27:58"
"581","499","2024-12-01 20:27:58"
"582","509","2024-12-01 20:27:58"
"583","454","2024-12-01 20:27:59"
"584","482","2024-12-01 20:27:59"
"585","473","2024-12-01 20:27:59"
"586","460","2024-12-01 20:27:59"
"587","481","2024-12-01 20:28:00"
"588","541","2024-12-01 20:28:00"
"589","569","2024-12-01 20:28:00"
"590","521","2024-12-01 20:28:01"
"591","542","2024-12-01 20:28:01"
"592","547","2024-12-01 20:28:01"
"593","532","2024-12-01 20:28:02"
"594","493","2024-12-01 20:28:02"
"595","511","2024-12-01 20:28:02"
"596","481","2024-12-01 20:28:02"
"597","364","2024-12-01 20:28:03"
"598","497","2024-12-01 20:28:03"
"599","220","2024-12-01 20:28:03"
"600","222","2024-12-01 20:28:03"
"601","742","2024-12-01 20:28:04"
"602","672","2024-12-01 20:28:04"
"603","664","2024-12-01 20:28:04"
"604","737","2024-12-01 20:28:05"
"605","562","2024-12-01 20:28:05"
"606","460","2024-12-01 20:28:05"
"607","543","2024-12-01 20:28:06"
"608","428","2024-12-01 20:28:06"
"609","453","2024-12-01 20:28:06"
"610","480","2024-12-01 20:28:06"
"611","480","2024-12-01 20:28:07"
"612","530","2024-12-01 20:28:07"
"613","502","2024-12-01 20:28:07"
"614","488","2024-12-01 20:28:07"
"615","483","2024-12-01 20:28:08"
"616","514","2024-12-01 20:28:08"
"617","499","2024-12-01 20:28:08"
"618","523","2024-12-01 20:28:08"
"619","502","2024-12-01 20:28:09"
"620","395","2024-12-01 20:28:09"
"621","440","2024-12-01 20:28:09"
"622","300","2024-12-01 20:28:10"
"623","446","2024-12-01 20:28:10"
"624","559","2024-12-01 20:28:10"
"625","517","2024-12-01 20:28:10"
"626","448","2024-12-01 20:28:11"
"627","508","2024-12-01 20:28:11"
"628","567","2024-12-01 20:28:11"
"629","525","2024-12-01 20:28:12"
"630","641","2024-12-01 20:28:12"
"631","496","2024-12-01 20:28:12"
"632","490","2024-12-01 20:28:12"
"633","523","2024-12-01 20:28:13"
"634","498","2024-12-01 20:28:13"
"635","543","2024-12-01 20:28:13"
"636","472","2024-12-01 20:28:13"
"637","510","2024-12-01 20:28:14"
"638","490","2024-12-01 20:28:14"
"639","402","2024-12-01 20:28:14"
"640","477","2024-12-01 20:28:14"
"641","561","2024-12-01 20:28:15"
"642","375","2024-12-01 20:28:15"
"643","384","2024-12-01 20:28:15"
"644","492","2024-12-01 20:28:16"
"645","512","2024-12-01 20:28:16"
"646","518","2024-12-01 20:28:16"
"647","497","2024-12-01 20:28:16"
"648","478","2024-12-01 20:28:17"
"649","519","2024-12-01 20:28:17"
"650","591","2024-12-01 20:28:17"
"651","551","2024-12-01 20:28:18"
"652","520","2024-12-01 20:28:18"
"653","466","2024-12-01 20:28:18"
"654","397","2024-12-01 20:28:19"
"655","641","2024-12-01 20:28:19"
"656","529","2024-12-01 20:28:19"
"657","459","2024-12-01 20:28:19"
"658","801","2024-12-01 20:28:20"
"659","479","2024-12-01 20:28:20"
"660","488","2024-12-01 20:28:20"
"661","523","2024-12-01 20:28:21"
"662","523","2024-12-01 20:28:21"
"663","482","2024-12-01 20:28:21"
"664","504","2024-12-01 20:28:22"
"665","532","2024-12-01 20:28:22"
"666","467","2024-12-01 20:28:22"
"667","502","2024-12-01 20:28:22"
"668","522","2024-12-01 20:28:23"
"669","517","2024-12-01 20:28:23"
"670","516","2024-12-01 20:28:23"
"671","505","2024-12-01 20:28:24"
"672","524","2024-12-01 20:28:24"
"673","502","2024-12-01 20:28:24"
"674","483","2024-12-01 20:28:24"
"675","501","2024-12-01 20:28:25"
"676","504","2024-12-01 20:28:25"
"677","819","2024-12-01 20:28:25"
"678","474","2024-12-01 20:28:25"
"679","500","2024-12-01 20:28:26"
"680","453","2024-12-01 20:28:26"
"681","494","2024-12-01 20:28:26"
"682","508","2024-12-01 20:28:27"
"683","521","2024-12-01 20:28:27"
"684","504","2024-12-01 20:28:27"
"685","511","2024-12-01 20:28:27"
"686","499","2024-12-01 20:28:28"
"687","514","2024-12-01 20:28:28"
"688","484","2024-12-01 20:28:28"
"689","495","2024-12-01 20:28:29"
"690","485","2024-12-01 20:28:29"
"691","500","2024-12-01 20:28:29"
"692","521","2024-12-01 20:28:30"
"693","458","2024-12-01 20:28:30"
"694","509","2024-12-01 20:28:30"
"695","484","2024-12-01 20:28:30"
"696","495","2024-12-01 20:28:31"
"697","487","2024-12-01 20:28:31"
"698","496","2024-12-01 20:28:31"
"699","536","2024-12-01 20:28:31"
"700","504","2024-12-01 20:28:32"
"701","827","2024-12-01 20:28:32"
"702","501","2024-12-01 20:28:32"
"703","508","2024-12-01 20:28:33"
"704","468","2024-12-01 20:28:33"
"705","487","2024-12-01 20:28:33"
"706","530","2024-12-01 20:28:33"
"707","492","2024-12-01 20:28:34"
"708","481","2024-12-01 20:28:34"
"709","501","2024-12-01 20:28:34"
"710","502","2024-12-01 20:28:35"
"711","524","2024-12-01 20:28:35"
"712","501","2024-12-01 20:28:35"
"713","499","2024-12-01 20:28:35"
"714","501","2024-12-01 20:28:36"
"715","534","2024-12-01 20:28:36"
"716","503","2024-12-01 20:28:36"
"717","488","2024-12-01 20:28:37"
"718","502","2024-12-01 20:28:37"
"719","503","2024-12-01 20:28:37"
"720","504","2024-12-01 20:28:38"
"721","529","2024-12-01 20:28:38"
"722","496","2024-12-01 20:28:38"
"723","495","2024-12-01 20:28:38"
"724","549","2024-12-01 20:28:39"
"725","488","2024-12-01 20:28:39"
"726","519","2024-12-01 20:28:39"
"727","487","2024-12-01 20:28:40"
"728","511","2024-12-01 20:28:40"
"729","451","2024-12-01 20:28:40"
"730","495","2024-12-01 20:28:40"
"731","527","2024-12-01 20:28:41"
"732","544","2024-12-01 20:28:41"
"733","554","2024-12-01 20:28:41"
"734","494","2024-12-01 20:28:42"
"735","512","2024-12-01 20:28:42"
"736","598","2024-12-01 20:28:42"
"737","491","2024-12-01 20:28:42"
"738","507","2024-12-01 20:28:43"
"739","488","2024-12-01 20:28:43"
"740","486","2024-12-01 20:28:43"
"741","472","2024-12-01 20:28:44"
"742","486","2024-12-01 20:28:44"
"743","509","2024-12-01 20:28:44"
"744","536","2024-12-01 20:28:45"
"745","499","2024-12-01 20:28:45"
"746","496","2024-12-01 20:28:45"
"747","487","2024-12-01 20:28:45"
"748","544","2024-12-01 20:28:46"
"749","502","2024-12-01 20:28:46"
"750","511","2024-12-01 20:28:46"
"751","453","2024-12-01 20:28:47"
"752","500","2024-12-01 20:28:47"
"753","532","2024-12-01 20:28:47"
"754","479","2024-12-01 20:28:48"
"755","516","2024-12-01 20:28:48"
"756","823","2024-12-01 20:28:48"
"757","499","2024-12-01 20:28:49"
"758","827","2024-12-01 20:28:49"
"759","499","2024-12-01 20:28:49"
"760","688","2024-12-01 20:28:50"
"761","541","2024-12-01 20:28:50"
"762","554","2024-12-01 20:28:50"
"763","534","2024-12-01 20:28:50"
"764","517","2024-12-01 20:28:51"
"765","485","2024-12-01 20:28:51"
"766","505","2024-12-01 20:28:51"
"767","514","2024-12-01 20:28:52"
"768","510","2024-12-01 20:28:52"
"769","538","2024-12-01 20:28:52"
"770","455","2024-12-01 20:28:52"
"771","507","2024-12-01 20:28:53"
"772","483","2024-12-01 20:28:53"
"773","507","2024-12-01 20:28:53"
"774","522","2024-12-01 20:28:54"
"775","531","2024-12-01 20:28:54"
"776","536","2024-12-01 20:28:54"
"777","491","2024-12-01 20:28:55"
"778","504","2024-12-01 20:28:55"
"779","473","2024-12-01 20:28:55"
"780","496","2024-12-01 20:28:56"
"781","514","2024-12-01 20:28:56"
"782","517","2024-12-01 20:28:56"
"783","715","2024-12-01 20:28:57"
"784","482","2024-12-01 20:28:57"
"785","574","2024-12-01 20:28:57"
"786","481","2024-12-01 20:28:58"
"787","468","2024-12-01 20:28:58"
"788","517","2024-12-01 20:28:58"
"789","469","2024-12-01 20:28:58"
"790","491","2024-12-01 20:28:59"
"791","709","2024-12-01 20:28:59"
"792","493","2024-12-01 20:28:59"
"793","547","2024-12-01 20:29:00"
"794","531","2024-12-01 20:29:00"
"795","517","2024-12-01 20:29:00"
"796","475","2024-12-01 20:29:01"
"797","504","2024-12-01 20:29:01"
"798","505","2024-12-01 20:29:01"
"799","506","2024-12-01 20:29:02"
"800","505","2024-12-01 20:29:02"
"801","492","2024-12-01 20:29:02"
"802","501","2024-12-01 20:29:02"
"803","501","2024-12-01 20:29:03"
"804","497","2024-12-01 20:29:03"
"805","500","2024-12-01 20:29:03"
"806","530","2024-12-01 20:29:04"
"807","529","2024-12-01 20:29:04"
"808","516","2024-12-01 20:29:04"
"809","486","2024-12-01 20:29:05"
"810","498","2024-12-01 20:29:05"
"811","486","2024-12-01 20:29:05"
"812","475","2024-12-01 20:29:05"
"813","527","2024-12-01 20:29:06"
"814","520","2024-12-01 20:29:06"
"815","603","2024-12-01 20:29:06"
"816","523","2024-12-01 20:29:06"
"817","510","2024-12-01 20:29:07"
"818","514","2024-12-01 20:29:07"
"819","536","2024-12-01 20:29:07"
"820","456","2024-12-01 20:29:08"
"821","501","2024-12-01 20:29:08"
"822","515","2024-12-01 20:29:08"
"823","470","2024-12-01 20:29:08"
"824","484","2024-12-01 20:29:09"
"825","468","2024-12-01 20:29:09"
"826","460","2024-12-01 20:29:09"
"827","497","2024-12-01 20:29:10"
"828","474","2024-12-01 20:29:10"
"829","477","2024-12-01 20:29:10"
"830","497","2024-12-01 20:29:10"
"831","492","2024-12-01 20:29:11"
"832","495","2024-12-01 20:29:11"
"833","486","2024-12-01 20:29:11"
"834","485","2024-12-01 20:29:12"
"835","473","2024-12-01 20:29:12"
"836","512","2024-12-01 20:29:12"
"837","600","2024-12-01 20:29:13"
"838","554","2024-12-01 20:29:13"
"839","480","2024-12-01 20:29:13"
"840","865","2024-12-01 20:29:13"
"841","522","2024-12-01 20:29:14"
"842","511","2024-12-01 20:29:14"
"843","599","2024-12-01 20:29:14"
"844","505","2024-12-01 20:29:15"
"845","500","2024-12-01 20:29:15"
"846","485","2024-12-01 20:29:15"
"847","500","2024-12-01 20:29:15"
"848","649","2024-12-01 20:29:16"
"849","519","2024-12-01 20:29:16"
"850","498","2024-12-01 20:29:16"
"851","537","2024-12-01 20:29:16"
"852","502","2024-12-01 20:29:17"
"853","499","2024-12-01 20:29:17"
"854","529","2024-12-01 20:29:17"
"855","484","2024-12-01 20:29:18"
"856","508","2024-12-01 20:29:18"
"857","460","2024-12-01 20:29:18"
"858","472","2024-12-01 20:29:18"
"859","517","2024-12-01 20:29:19"
"860","455","2024-12-01 20:29:19"
"861","523","2024-12-01 20:29:19"
"862","536","2024-12-01 20:29:20"
"863","480","2024-12-01 20:29:20"
"864","485","2024-12-01 20:29:20"
"865","701","2024-12-01 20:29:20"
"866","507","2024-12-01 20:29:21"
"867","503","2024-12-01 20:29:21"
"868","477","2024-12-01 20:29:21"
"869","502","2024-12-01 20:29:22"
"870","505","2024-12-01 20:29:22"
"871","497","2024-12-01 20:29:22"
"872","516","2024-12-01 20:29:22"
"873","469","2024-12-01 20:29:23"
"874","484","2024-12-01 20:29:23"
"875","535","2024-12-01 20:29:23"
"876","493","2024-12-01 20:29:24"
"877","518","2024-12-01 20:29:24"
"878","510","2024-12-01 20:29:24"
"879","496","2024-12-01 20:29:25"
"880","498","2024-12-01 20:29:25"
"881","478","2024-12-01 20:29:25"
"882","488","2024-12-01 20:29:25"
"883","544","2024-12-01 20:29:26"
"884","462","2024-12-01 20:29:26"
"885","475","2024-12-01 20:29:26"
"886","444","2024-12-01 20:29:27"
"887","491","2024-12-01 20:29:27"
"888","458","2024-12-01 20:29:27"
"889","501","2024-12-01 20:29:28"
"890","511","2024-12-01 20:29:28"
"891","513","2024-12-01 20:29:28"
"892","547","2024-12-01 20:29:28"
"893","477","2024-12-01 20:29:29"
"894","480","2024-12-01 20:29:29"
"895","470","2024-12-01 20:29:29"
"896","492","2024-12-01 20:29:30"
"897","478","2024-12-01 20:29:30"
"898","482","2024-12-01 20:29:30"
"899","528","2024-12-01 20:29:30"
"900","507","2024-12-01 20:29:31"
"901","481","2024-12-01 20:29:31"
"902","544","2024-12-01 20:29:31"
"903","491","2024-12-01 20:29:32"
"904","493","2024-12-01 20:29:32"
"905","503","2024-12-01 20:29:32"
"906","477","2024-12-01 20:29:32"
"907","506","2024-12-01 20:29:33"
"908","528","2024-12-01 20:29:33"
"909","504","2024-12-01 20:29:33"
"910","554","2024-12-01 20:29:34"
"911","559","2024-12-01 20:29:34"
"912","516","2024-12-01 20:29:34"
"913","469","2024-12-01 20:29:35"
"914","492","2024-12-01 20:29:35"
"915","484","2024-12-01 20:29:35"
"916","477","2024-12-01 20:29:35"
"917","513","2024-12-01 20:29:36"
"918","502","2024-12-01 20:29:36"
"919","528","2024-12-01 20:29:36"
"920","515","2024-12-01 20:29:36"
"921","572","2024-12-01 20:29:37"
"922","500","2024-12-01 20:29:37"
"923","491","2024-12-01 20:29:37"
"924","496","2024-12-01 20:29:38"
"925","473","2024-12-01 20:29:38"
"926","527","2024-12-01 20:29:38"
"927","484","2024-12-01 20:29:38"
"928","494","2024-12-01 20:29:39"
"929","692","2024-12-01 20:29:39"
"930","511","2024-12-01 20:29:39"
"931","516","2024-12-01 20:29:40"
"932","488","2024-12-01 20:29:40"
"933","488","2024-12-01 20:29:40"
"934","664","2024-12-01 20:29:40"
"935","509","2024-12-01 20:29:41"
"936","507","2024-12-01 20:29:41"
"937","464","2024-12-01 20:29:41"
"938","482","2024-12-01 20:29:42"
"939","482","2024-12-01 20:29:42"
"940","492","2024-12-01 20:29:42"
"941","549","2024-12-01 20:29:42"
"942","536","2024-12-01 20:29:43"
"943","523","2024-12-01 20:29:43"
"944","487","2024-12-01 20:29:43"
"945","507","2024-12-01 20:29:44"
"946","469","2024-12-01 20:29:44"
"947","491","2024-12-01 20:29:44"
"948","847","2024-12-01 20:29:44"
"949","495","2024-12-01 20:29:45"
"950","496","2024-12-01 20:29:45"
"951","476","2024-12-01 20:29:45"
"952","492","2024-12-01 20:29:45"
"953","737","2024-12-01 20:29:46"
"954","475","2024-12-01 20:29:46"
"955","534","2024-12-01 20:29:46"
"956","463","2024-12-01 20:29:47"
"957","501","2024-12-01 20:29:47"
"958","513","2024-12-01 20:29:47"
"959","484","2024-12-01 20:29:47"
"960","520","2024-12-01 20:29:48"
"961","514","2024-12-01 20:29:48"
"962","491","2024-12-01 20:29:48"
"963","480","2024-12-01 20:29:49"
"964","501","2024-12-01 20:29:49"
"965","450","2024-12-01 20:29:49"
"966","489","2024-12-01 20:29:49"
"967","510","2024-12-01 20:29:50"
"968","483","2024-12-01 20:29:50"
"969","515","2024-12-01 20:29:50"
"970","544","2024-12-01 20:29:51"
"971","469","2024-12-01 20:29:51"
"972","510","2024-12-01 20:29:51"
"973","497","2024-12-01 20:29:52"
"974","470","2024-12-01 20:29:52"
"975","479","2024-12-01 20:29:52"
"976","507","2024-12-01 20:29:52"
"977","482","2024-12-01 20:29:53"
"978","502","2024-12-01 20:29:53"
"979","504","2024-12-01 20:29:53"
"980","490","2024-12-01 20:29:54"
"981","530","2024-12-01 20:29:54"
"982","537","2024-12-01 20:29:54"
"983","518","2024-12-01 20:29:55"
"984","631","2024-12-01 20:29:55"
"985","260","2024-12-01 20:29:55"
"986","484","2024-12-01 20:29:55"
"987","431","2024-12-01 20:29:56"
"988","591","2024-12-01 20:29:56"
"989","618","2024-12-01 20:29:56"
"990","548","2024-12-01 20:29:57"
"991","594","2024-12-01 20:29:57"
"992","463","2024-12-01 20:29:57"
"993","549","2024-12-01 20:29:57"
"994","748","2024-12-01 20:29:58"
"995","519","2024-12-01 20:29:58"
"996","517","2024-12-01 20:29:58"
"997","513","2024-12-01 20:29:59"
"998","488","2024-12-01 20:29:59"
"999","500","2024-12-01 20:29:59"
"1000","507","2024-12-01 20:29:59"
"1001","485","2024-12-01 20:30:00"
"1002","504","2024-12-01 20:30:00"
"1003","522","2024-12-01 20:30:00"
"1004","481","2024-12-01 20:30:01"
"1005","510","2024-12-01 20:30:01"
"1006","531","2024-12-01 20:30:01"
"1007","476","2024-12-01 20:30:01"
"1008","492","2024-12-01 20:30:02"
"1009","505","2024-12-01 20:30:02"
"1010","468","2024-12-01 20:30:02"
"1011","501","2024-12-01 20:30:03"
"1012","504","2024-12-01 20:30:03"
"1013","492","2024-12-01 20:30:03"
"1014","499","2024-12-01 20:30:03"
"1015","511","2024-12-01 20:30:04"
"1016","480","2024-12-01 20:30:04"
"1017","498","2024-12-01 20:30:04"
"1018","497","2024-12-01 20:30:05"
"1019","499","2024-12-01 20:30:05"
"1020","500","2024-12-01 20:30:05"
"1021","488","2024-12-01 20:30:05"
"1022","511","2024-12-01 20:30:06"
"1023","523","2024-12-01 20:30:06"
"1024","479","2024-12-01 20:30:06"
"1025","487","2024-12-01 20:30:07"
"1026","452","2024-12-01 20:30:07"
"1027","501","2024-12-01 20:30:07"
"1028","810","2024-12-01 20:30:08"
"1029","495","2024-12-01 20:30:08"
"1030","536","2024-12-01 20:30:08"
"1031","462","2024-12-01 20:30:09"
"1032","519","2024-12-01 20:30:09"
"1033","513","2024-12-01 20:30:09"
"1034","500","2024-12-01 20:30:09"
"1035","510","2024-12-01 20:30:10"
"1036","661","2024-12-01 20:30:10"
"1037","496","2024-12-01 20:30:10"
"1038","487","2024-12-01 20:30:11"
"1039","471","2024-12-01 20:30:11"
"1040","496","2024-12-01 20:30:11"
"1041","491","2024-12-01 20:30:11"
"1042","473","2024-12-01 20:30:12"
"1043","507","2024-12-01 20:30:12"
"1044","510","2024-12-01 20:30:12"
"1045","465","2024-12-01 20:30:13"
"1046","519","2024-12-01 20:30:13"
"1047","767","2024-12-01 20:30:13"
"1048","767","2024-12-01 20:30:13"
"1049","767","2024-12-01 20:30:14"
"1050","767","2024-12-01 20:30:14"
"1051","767","2024-12-01 20:30:14"
"1052","767","2024-12-01 20:30:15"
"1053","767","2024-12-01 20:30:15"
"1054","767","2024-12-01 20:30:15"
"1055","755","2024-12-01 20:30:15"
"1056","244","2024-12-01 20:30:16"
"1057","242","2024-12-01 20:30:16"
"1058","479","2024-12-01 20:30:16"
"1059","590","2024-12-01 20:30:17"
"1060","568","2024-12-01 20:30:17"
"1061","718","2024-12-01 20:30:17"
"1062","508","2024-12-01 20:30:17"
"1063","508","2024-12-01 20:30:18"
"1064","479","2024-12-01 20:30:18"
"1065","483","2024-12-01 20:30:18"
"1066","529","2024-12-01 20:30:19"
"1067","518","2024-12-01 20:30:19"
"1068","543","2024-12-01 20:30:19"
"1069","688","2024-12-01 20:30:20"
"1070","596","2024-12-01 20:30:20"
"1071","799","2024-12-01 20:30:20"
"1072","521","2024-12-01 20:30:21"
"1073","446","2024-12-01 20:30:21"
"1074","684","2024-12-01 20:30:21"
"1075","494","2024-12-01 20:30:21"
"1076","503","2024-12-01 20:30:22"
"1077","825","2024-12-01 20:30:22"
"1078","547","2024-12-01 20:30:22"
"1079","493","2024-12-01 20:30:23"
"1080","523","2024-12-01 20:30:23"
"1081","278","2024-12-01 20:30:23"
"1082","217","2024-12-01 20:30:23"
"1083","560","2024-12-01 20:30:24"
"1084","115","2024-12-01 20:30:24"
"1085","400","2024-12-01 20:30:24"
"1086","712","2024-12-01 20:30:25"
"1087","511","2024-12-01 20:30:25"
"1088","566","2024-12-01 20:30:25"
"1089","261","2024-12-01 20:30:26"
"1090","309","2024-12-01 20:30:26"
"1091","704","2024-12-01 20:30:26"
"1092","750","2024-12-01 20:30:26"
"1093","756","2024-12-01 20:30:27"
"1094","609","2024-12-01 20:30:27"
"1095","591","2024-12-01 20:30:27"
"1096","629","2024-12-01 20:30:28"
"1097","460","2024-12-01 20:30:28"
"1098","499","2024-12-01 20:30:28"
"1099","528","2024-12-01 20:30:29"
"1100","535","2024-12-01 20:30:29"
"1101","480","2024-12-01 20:30:29"
"1102","465","2024-12-01 20:30:30"
"1103","468","2024-12-01 20:30:30"
"1104","536","2024-12-01 20:30:30"
"1105","505","2024-12-01 20:30:30"
"1106","458","2024-12-01 20:30:31"
"1107","505","2024-12-01 20:30:31"
"1108","494","2024-12-01 20:30:31"
"1109","588","2024-12-01 20:30:32"
"1110","502","2024-12-01 20:30:32"
"1111","514","2024-12-01 20:30:33"
"1112","550","2024-12-01 20:30:33"
"1113","567","2024-12-01 20:30:33"
"1114","499","2024-12-01 20:30:33"
"1115","413","2024-12-01 20:30:34"
"1116","448","2024-12-01 20:30:34"
"1117","538","2024-12-01 20:30:34"
"1118","488","2024-12-01 20:30:35"
"1119","452","2024-12-01 20:30:35"
"1120","542","2024-12-01 20:30:35"
"1121","485","2024-12-01 20:30:36"
"1122","720","2024-12-01 20:30:36"
"1123","504","2024-12-01 20:30:36"
"1124","598","2024-12-01 20:30:36"
"1125","757","2024-12-01 20:30:37"
"1126","758","2024-12-01 20:30:37"
"1127","774","2024-12-01 20:30:37"
"1128","748","2024-12-01 20:30:38"
"1129","735","2024-12-01 20:30:38"
"1130","747","2024-12-01 20:30:38"
"1131","748","2024-12-01 20:30:39"
"1132","745","2024-12-01 20:30:39"
"1133","737","2024-12-01 20:30:39"
"1134","737","2024-12-01 20:30:39"
"1135","737","2024-12-01 20:30:40"
"1136","735","2024-12-01 20:30:40"
"1137","415","2024-12-01 20:30:40"
"1138","240","2024-12-01 20:30:41"
"1139","377","2024-12-01 20:30:41"
"1140","503","2024-12-01 20:30:41"
"1141","543","2024-12-01 20:30:41"
"1142","560","2024-12-01 20:30:42"
"1143","562","2024-12-01 20:30:42"
"1144","491","2024-12-01 20:30:42"
"1145","517","2024-12-01 20:30:43"
"1146","495","2024-12-01 20:30:43"
"1147","488","2024-12-01 20:30:43"
"1148","500","2024-12-01 20:30:44"
"1149","500","2024-12-01 20:30:44"
"1150","517","2024-12-01 20:30:44"
"1151","508","2024-12-01 20:30:44"
"1152","492","2024-12-01 20:30:45"
"1153","512","2024-12-01 20:30:45"
"1154","511","2024-12-01 20:30:45"
"1155","501","2024-12-01 20:30:46"
"1156","482","2024-12-01 20:30:46"
"1157","497","2024-12-01 20:30:46"
"1158","478","2024-12-01 20:30:47"
"1159","482","2024-12-01 20:30:47"
"1160","494","2024-12-01 20:30:47"
"1161","464","2024-12-01 20:30:48"
"1162","475","2024-12-01 20:30:48"
"1163","500","2024-12-01 20:30:48"
"1164","493","2024-12-01 20:30:48"
"1165","494","2024-12-01 20:30:49"
"1166","526","2024-12-01 20:30:49"
"1167","466","2024-12-01 20:30:49"
"1168","484","2024-12-01 20:30:50"
"1169","855","2024-12-01 20:30:50"
"1170","470","2024-12-01 20:30:50"
"1171","492","2024-12-01 20:30:51"
"1172","638","2024-12-01 20:30:51"
"1173","491","2024-12-01 20:30:51"
"1174","487","2024-12-01 20:30:51"
"1175","545","2024-12-01 20:30:52"
"1176","499","2024-12-01 20:30:52"
"1177","458","2024-12-01 20:30:52"
"1178","325","2024-12-01 20:30:53"
"1179","513","2024-12-01 20:30:53"
"1180","476","2024-12-01 20:30:53"
"1181","507","2024-12-01 20:30:54"
"1182","577","2024-12-01 20:30:54"
"1183","459","2024-12-01 20:30:54"
"1184","531","2024-12-01 20:30:54"
"1185","523","2024-12-01 20:30:55"
"1186","716","2024-12-01 20:30:55"
"1187","449","2024-12-01 20:30:55"
"1188","545","2024-12-01 20:30:56"
"1189","555","2024-12-01 20:30:56"
"1190","465","2024-12-01 20:30:56"
"1191","759","2024-12-01 20:30:57"
"1192","267","2024-12-01 20:30:57"
"1193","786","2024-12-01 20:30:57"
"1194","752","2024-12-01 20:30:57"
"1195","521","2024-12-01 20:30:58"
"1196","464","2024-12-01 20:30:58"
"1197","499","2024-12-01 20:30:58"
"1198","460","2024-12-01 20:30:58"
"1199","486","2024-12-01 20:30:59"
"1200","482","2024-12-01 20:30:59"
"1201","525","2024-12-01 20:30:59"
"1202","522","2024-12-01 20:31:00"
"1203","266","2024-12-01 20:31:00"
"1204","443","2024-12-01 20:31:00"
"1205","394","2024-12-01 20:31:00"
"1206","469","2024-12-01 20:31:01"
"1207","756","2024-12-01 20:31:01"
"1208","530","2024-12-01 20:31:01"
"1209","741","2024-12-01 20:31:02"
"1210","521","2024-12-01 20:31:02"
"1211","784","2024-12-01 20:31:02"
"1212","564","2024-12-01 20:31:03"
"1213","650","2024-12-01 20:31:03"
"1214","201","2024-12-01 20:31:03"
"1215","748","2024-12-01 20:31:03"
"1216","737","2024-12-01 20:31:04"
"1217","479","2024-12-01 20:31:04"
"1218","468","2024-12-01 20:31:04"
"1219","674","2024-12-01 20:31:05"
"1220","712","2024-12-01 20:31:05"
"1221","493","2024-12-01 20:31:05"
"1222","282","2024-12-01 20:31:06"
"1223","727","2024-12-01 20:31:06"
"1224","274","2024-12-01 20:31:06"
"1225","568","2024-12-01 20:31:06"
"1226","564","2024-12-01 20:31:07"
"1227","456","2024-12-01 20:31:07"
"1228","529","2024-12-01 20:31:07"
"1229","461","2024-12-01 20:31:08"
"1230","502","2024-12-01 20:31:08"
"1231","520","2024-12-01 20:31:08"
"1232","500","2024-12-01 20:31:09"
"1233","479","2024-12-01 20:31:09"
"1234","272","2024-12-01 20:31:09"
"1235","466","2024-12-01 20:31:09"
"1236","546","2024-12-01 20:31:10"
"1237","491","2024-12-01 20:31:10"
"1238","478","2024-12-01 20:31:10"
"1239","494","2024-12-01 20:31:11"
"1240","494","2024-12-01 20:31:11"
"1241","478","2024-12-01 20:31:11"
"1242","463","2024-12-01 20:31:12"
"1243","282","2024-12-01 20:31:12"
"1244","512","2024-12-01 20:31:12"
"1245","726","2024-12-01 20:31:12"
"1246","682","2024-12-01 20:31:13"
"1247","611","2024-12-01 20:31:13"
"1248","306","2024-12-01 20:31:13"
"1249","569","2024-12-01 20:31:14"
"1250","582","2024-12-01 20:31:14"
"1251","502","2024-12-01 20:31:14"
"1252","522","2024-12-01 20:31:15"
"1253","524","2024-12-01 20:31:15"
"1254","496","2024-12-01 20:31:15"
"1255","487","2024-12-01 20:31:16"
"1256","651","2024-12-01 20:31:16"
"1257","464","2024-12-01 20:31:16"
"1258","900","2024-12-01 20:31:16"
"1259","544","2024-12-01 20:31:17"
"1260","516","2024-12-01 20:31:17"
"1261","489","2024-12-01 20:31:17"
"1262","515","2024-12-01 20:31:18"
"1263","502","2024-12-01 20:31:18"
"1264","543","2024-12-01 20:31:18"
"1265","493","2024-12-01 20:31:18"
"1266","519","2024-12-01 20:31:19"
"1267","473","2024-12-01 20:31:19"
"1268","537","2024-12-01 20:31:19"
"1269","644","2024-12-01 20:31:19"
"1270","485","2024-12-01 20:31:20"
"1271","411","2024-12-01 20:31:20"
"1272","432","2024-12-01 20:31:20"
"1273","557","2024-12-01 20:31:20"
"1274","455","2024-12-01 20:31:21"
"1275","446","2024-12-01 20:31:21"
"1276","473","2024-12-01 20:31:21"
"1277","336","2024-12-01 20:31:22"
"1278","487","2024-12-01 20:31:22"
"1279","560","2024-12-01 20:31:22"
"1280","485","2024-12-01 20:31:23"
"1281","516","2024-12-01 20:31:23"
"1282","801","2024-12-01 20:31:23"
"1283","466","2024-12-01 20:31:23"
"1284","500","2024-12-01 20:31:24"
"1285","473","2024-12-01 20:31:24"
"1286","512","2024-12-01 20:31:24"
"1287","544","2024-12-01 20:31:25"
"1288","532","2024-12-01 20:31:25"
"1289","485","2024-12-01 20:31:25"
"1290","470","2024-12-01 20:31:25"
"1291","566","2024-12-01 20:31:26"
"1292","482","2024-12-01 20:31:26"
"1293","519","2024-12-01 20:31:26"
"1294","529","2024-12-01 20:31:27"
"1295","519","2024-12-01 20:31:27"
"1296","494","2024-12-01 20:31:27"
"1297","517","2024-12-01 20:31:27"
"1298","477","2024-12-01 20:31:28"
"1299","518","2024-12-01 20:31:28"
"1300","501","2024-12-01 20:31:28"
"1301","493","2024-12-01 20:31:29"
"1302","596","2024-12-01 20:31:29"
"1303","469","2024-12-01 20:31:29"
"1304","492","2024-12-01 20:31:29"
"1305","488","2024-12-01 20:31:30"
"1306","531","2024-12-01 20:31:30"
"1307","506","2024-12-01 20:31:30"
"1308","473","2024-12-01 20:31:31"
"1309","467","2024-12-01 20:31:31"
"1310","601","2024-12-01 20:31:31"
"1311","460","2024-12-01 20:31:31"
"1312","539","2024-12-01 20:31:32"
"1313","540","2024-12-01 20:31:32"
"1314","530","2024-12-01 20:31:32"
"1315","519","2024-12-01 20:31:33"
"1316","492","2024-12-01 20:31:33"
"1317","476","2024-12-01 20:31:33"
"1318","505","2024-12-01 20:31:34"
"1319","543","2024-12-01 20:31:34"
"1320","490","2024-12-01 20:31:34"
"1321","488","2024-12-01 20:31:35"
"1322","489","2024-12-01 20:31:35"
"1323","529","2024-12-01 20:31:35"
"1324","473","2024-12-01 20:31:35"
"1325","494","2024-12-01 20:31:36"
"1326","532","2024-12-01 20:31:36"
"1327","520","2024-12-01 20:31:36"
"1328","505","2024-12-01 20:31:37"
"1329","511","2024-12-01 20:31:37"
"1330","494","2024-12-01 20:31:37"
"1331","542","2024-12-01 20:31:37"
"1332","527","2024-12-01 20:31:38"
"1333","480","2024-12-01 20:31:38"
"1334","488","2024-12-01 20:31:38"
"1335","522","2024-12-01 20:31:39"
"1336","487","2024-12-01 20:31:39"
"1337","561","2024-12-01 20:31:39"
"1338","468","2024-12-01 20:31:40"
"1339","516","2024-12-01 20:31:40"
"1340","499","2024-12-01 20:31:40"
"1341","516","2024-12-01 20:31:41"
"1342","523","2024-12-01 20:31:41"
"1343","551","2024-12-01 20:31:41"
"1344","527","2024-12-01 20:31:42"
"1345","464","2024-12-01 20:31:42"
"1346","476","2024-12-01 20:31:42"
"1347","521","2024-12-01 20:31:42"
"1348","562","2024-12-01 20:31:43"
"1349","481","2024-12-01 20:31:43"
"1350","492","2024-12-01 20:31:43"
"1351","550","2024-12-01 20:31:44"
"1352","514","2024-12-01 20:31:44"
"1353","460","2024-12-01 20:31:44"
"1354","495","2024-12-01 20:31:45"
"1355","486","2024-12-01 20:31:45"
"1356","702","2024-12-01 20:31:45"
"1357","492","2024-12-01 20:31:45"
"1358","513","2024-12-01 20:31:46"
"1359","483","2024-12-01 20:31:46"
"1360","526","2024-12-01 20:31:46"
"1361","517","2024-12-01 20:31:47"
"1362","510","2024-12-01 20:31:47"
"1363","531","2024-12-01 20:31:47"
"1364","877","2024-12-01 20:31:48"
"1365","488","2024-12-01 20:31:48"
"1366","533","2024-12-01 20:31:48"
"1367","500","2024-12-01 20:31:49"
"1368","522","2024-12-01 20:31:49"
"1369","521","2024-12-01 20:31:49"
"1370","519","2024-12-01 20:31:49"
"1371","512","2024-12-01 20:31:50"
"1372","510","2024-12-01 20:31:50"
"1373","568","2024-12-01 20:31:50"
"1374","485","2024-12-01 20:31:51"
"1375","517","2024-12-01 20:31:51"
"1376","492","2024-12-01 20:31:51"
"1377","498","2024-12-01 20:31:51"
"1378","520","2024-12-01 20:31:52"
"1379","467","2024-12-01 20:31:52"
"1380","484","2024-12-01 20:31:52"
"1381","555","2024-12-01 20:31:53"
"1382","472","2024-12-01 20:31:53"
"1383","476","2024-12-01 20:31:53"
"1384","466","2024-12-01 20:31:53"
"1385","466","2024-12-01 20:31:54"
"1386","472","2024-12-01 20:31:54"
"1387","472","2024-12-01 20:31:54"
"1388","489","2024-12-01 20:31:55"
"1389","541","2024-12-01 20:31:55"
"1390","516","2024-12-01 20:31:55"
"1391","498","2024-12-01 20:31:56"
"1392","510","2024-12-01 20:31:56"
"1393","530","2024-12-01 20:31:56"
"1394","495","2024-12-01 20:31:56"
"1395","518","2024-12-01 20:31:57"
"1396","543","2024-12-01 20:31:57"
"1397","469","2024-12-01 20:31:57"
"1398","626","2024-12-01 20:31:57"
"1399","512","2024-12-01 20:31:58"
"1400","504","2024-12-01 20:31:58"
"1401","479","2024-12-01 20:31:58"
"1402","496","2024-12-01 20:31:59"
"1403","517","2024-12-01 20:31:59"
"1404","541","2024-12-01 20:31:59"
"1405","492","2024-12-01 20:32:00"
"1406","540","2024-12-01 20:32:00"
"1407","490","2024-12-01 20:32:00"
"1408","505","2024-12-01 20:32:00"
"1409","487","2024-12-01 20:32:01"
"1410","485","2024-12-01 20:32:01"
"1411","501","2024-12-01 20:32:01"
"1412","467","2024-12-01 20:32:02"
"1413","477","2024-12-01 20:32:02"
"1414","519","2024-12-01 20:32:02"
"1415","486","2024-12-01 20:32:02"
"1416","499","2024-12-01 20:32:03"
"1417","515","2024-12-01 20:32:03"
"1418","526","2024-12-01 20:32:03"
"1419","489","2024-12-01 20:32:04"
"1420","488","2024-12-01 20:32:04"
"1421","499","2024-12-01 20:32:04"
"1422","506","2024-12-01 20:32:04"
"1423","599","2024-12-01 20:32:05"
"1424","484","2024-12-01 20:32:05"
"1425","522","2024-12-01 20:32:05"
"1426","534","2024-12-01 20:32:06"
"1427","501","2024-12-01 20:32:06"
"1428","508","2024-12-01 20:32:06"
"1429","523","2024-12-01 20:32:07"
"1430","494","2024-12-01 20:32:07"
"1431","545","2024-12-01 20:32:07"
"1432","487","2024-12-01 20:32:08"
"1433","507","2024-12-01 20:32:08"
"1434","480","2024-12-01 20:32:08"
"1435","502","2024-12-01 20:32:08"
"1436","525","2024-12-01 20:32:09"
"1437","488","2024-12-01 20:32:09"
"1438","526","2024-12-01 20:32:09"
"1439","502","2024-12-01 20:32:10"
"1440","516","2024-12-01 20:32:10"
"1441","539","2024-12-01 20:32:10"
"1442","530","2024-12-01 20:32:11"
"1443","505","2024-12-01 20:32:11"
"1444","473","2024-12-01 20:32:11"
"1445","542","2024-12-01 20:32:11"
"1446","496","2024-12-01 20:32:12"
"1447","474","2024-12-01 20:32:12"
"1448","519","2024-12-01 20:32:13"
"1449","747","2024-12-01 20:32:13"
"1450","581","2024-12-01 20:32:13"
"1451","354","2024-12-01 20:32:13"
"1452","523","2024-12-01 20:32:14"
"1453","505","2024-12-01 20:32:14"
"1454","482","2024-12-01 20:32:14"
"1455","483","2024-12-01 20:32:15"
"1456","526","2024-12-01 20:32:15"
"1457","582","2024-12-01 20:32:15"
"1458","482","2024-12-01 20:32:16"
"1459","489","2024-12-01 20:32:16"
"1460","543","2024-12-01 20:32:16"
"1461","455","2024-12-01 20:32:16"
"1462","462","2024-12-01 20:32:17"
"1463","510","2024-12-01 20:32:17"
"1464","561","2024-12-01 20:32:17"
"1465","595","2024-12-01 20:32:18"
"1466","566","2024-12-01 20:32:18"
"1467","443","2024-12-01 20:32:18"
"1468","536","2024-12-01 20:32:18"
"1469","529","2024-12-01 20:32:19"
"1470","494","2024-12-01 20:32:19"
"1471","483","2024-12-01 20:32:19"
"1472","479","2024-12-01 20:32:19"
"1473","634","2024-12-01 20:32:20"
"1474","545","2024-12-01 20:32:20"
"1475","531","2024-12-01 20:32:20"
"1476","495","2024-12-01 20:32:21"
"1477","506","2024-12-01 20:32:21"
"1478","491","2024-12-01 20:32:21"
"1479","520","2024-12-01 20:32:21"
"1480","488","2024-12-01 20:32:22"
"1481","601","2024-12-01 20:32:22"
"1482","546","2024-12-01 20:32:22"
"1483","530","2024-12-01 20:32:23"
"1484","506","2024-12-01 20:32:23"
"1485","557","2024-12-01 20:32:23"
"1486","486","2024-12-01 20:32:24"
"1487","525","2024-12-01 20:32:24"
"1488","539","2024-12-01 20:32:24"
"1489","535","2024-12-01 20:32:24"
"1490","481","2024-12-01 20:32:25"
"1491","450","2024-12-01 20:32:25"
"1492","464","2024-12-01 20:32:25"
"1493","493","2024-12-01 20:32:26"
"1494","527","2024-12-01 20:32:26"
"1495","509","2024-12-01 20:32:26"
"1496","535","2024-12-01 20:32:27"
"1497","526","2024-12-01 20:32:27"
"1498","514","2024-12-01 20:32:27"
"1499","527","2024-12-01 20:32:27"
"1500","496","2024-12-01 20:32:28"
"1501","472","2024-12-01 20:32:28"
"1502","525","2024-12-01 20:32:28"
"1503","483","2024-12-01 20:32:29"
"1504","465","2024-12-01 20:32:29"
"1505","432","2024-12-01 20:32:29"
"1506","476","2024-12-01 20:32:29"
"1507","521","2024-12-01 20:32:30"
"1508","471","2024-12-01 20:32:30"
"1509","505","2024-12-01 20:32:30"
"1510","672","2024-12-01 20:32:31"
"1511","510","2024-12-01 20:32:31"
"1512","519","2024-12-01 20:32:31"
"1513","570","2024-12-01 20:32:32"
"1514","493","2024-12-01 20:32:32"
"1515","847","2024-12-01 20:32:32"
"1516","458","2024-12-01 20:32:33"
"1517","522","2024-12-01 20:32:33"
"1518","471","2024-12-01 20:32:33"
"1519","473","2024-12-01 20:32:33"
"1520","518","2024-12-01 20:32:34"
"1521","540","2024-12-01 20:32:34"
"1522","490","2024-12-01 20:32:34"
"1523","545","2024-12-01 20:32:35"
"1524","473","2024-12-01 20:32:35"
"1525","491","2024-12-01 20:32:35"
"1526","472","2024-12-01 20:32:35"
"1527","511","2024-12-01 20:32:36"
"1528","515","2024-12-01 20:32:36"
"1529","480","2024-12-01 20:32:36"
"1530","509","2024-12-01 20:32:37"
"1531","495","2024-12-01 20:32:37"
"1532","495","2024-12-01 20:32:37"
"1533","495","2024-12-01 20:32:37"
"1534","504","2024-12-01 20:32:38"
"1535","474","2024-12-01 20:32:38"
"1536","479","2024-12-01 20:32:38"
"1537","491","2024-12-01 20:32:39"
"1538","478","2024-12-01 20:32:39"
"1539","456","2024-12-01 20:32:39"
"1540","500","2024-12-01 20:32:40"
"1541","540","2024-12-01 20:32:40"
"1542","493","2024-12-01 20:32:40"
"1543","512","2024-12-01 20:32:40"
"1544","495","2024-12-01 20:32:41"
"1545","500","2024-12-01 20:32:41"
"1546","509","2024-12-01 20:32:41"
"1547","499","2024-12-01 20:32:42"
"1548","484","2024-12-01 20:32:42"
"1549","457","2024-12-01 20:32:42"
"1550","486","2024-12-01 20:32:43"
"1551","531","2024-12-01 20:32:43"
"1552","466","2024-12-01 20:32:43"
"1553","506","2024-12-01 20:32:43"
"1554","514","2024-12-01 20:32:44"
"1555","533","2024-12-01 20:32:44"
"1556","550","2024-12-01 20:32:44"
"1557","512","2024-12-01 20:32:45"
"1558","523","2024-12-01 20:32:45"
"1559","489","2024-12-01 20:32:45"
"1560","508","2024-12-01 20:32:45"
"1561","517","2024-12-01 20:32:46"
"1562","535","2024-12-01 20:32:46"
"1563","510","2024-12-01 20:32:47"
"1564","493","2024-12-01 20:32:47"
"1565","494","2024-12-01 20:32:47"
"1566","512","2024-12-01 20:32:47"
"1567","456","2024-12-01 20:32:48"
"1568","506","2024-12-01 20:32:48"
"1569","507","2024-12-01 20:32:48"
"1570","574","2024-12-01 20:32:48"
"1571","467","2024-12-01 20:32:49"
"1572","526","2024-12-01 20:32:49"
"1573","821","2024-12-01 20:32:49"
"1574","498","2024-12-01 20:32:49"
"1575","521","2024-12-01 20:32:50"
"1576","640","2024-12-01 20:32:50"
"1577","497","2024-12-01 20:32:50"
"1578","518","2024-12-01 20:32:51"
"1579","492","2024-12-01 20:32:51"
"1580","505","2024-12-01 20:32:51"
"1581","509","2024-12-01 20:32:51"
"1582","527","2024-12-01 20:32:52"
"1583","519","2024-12-01 20:32:52"
"1584","703","2024-12-01 20:32:52"
"1585","501","2024-12-01 20:32:53"
"1586","494","2024-12-01 20:32:53"
"1587","489","2024-12-01 20:32:53"
"1588","485","2024-12-01 20:32:53"
"1589","518","2024-12-01 20:32:54"
"1590","631","2024-12-01 20:32:54"
"1591","485","2024-12-01 20:32:54"
"1592","527","2024-12-01 20:32:55"
"1593","484","2024-12-01 20:32:55"
"1594","514","2024-12-01 20:32:55"
"1595","518","2024-12-01 20:32:56"
"1596","490","2024-12-01 20:32:56"
"1597","503","2024-12-01 20:32:56"
"1598","770","2024-12-01 20:32:56"
"1599","520","2024-12-01 20:32:57"
"1600","523","2024-12-01 20:32:57"
"1601","473","2024-12-01 20:32:57"
"1602","508","2024-12-01 20:32:58"
"1603","527","2024-12-01 20:32:58"
"1604","489","2024-12-01 20:32:58"
"1605","503","2024-12-01 20:32:59"
"1606","517","2024-12-01 20:32:59"
"1607","497","2024-12-01 20:32:59"
"1608","495","2024-12-01 20:32:59"
"1609","536","2024-12-01 20:33:00"
"1610","472","2024-12-01 20:33:00"
"1611","490","2024-12-01 20:33:00"
"1612","503","2024-12-01 20:33:01"
"1613","462","2024-12-01 20:33:01"
"1614","499","2024-12-01 20:33:01"
"1615","490","2024-12-01 20:33:01"
"1616","453","2024-12-01 20:33:02"
"1617","478","2024-12-01 20:33:02"
"1618","509","2024-12-01 20:33:02"
"1619","490","2024-12-01 20:33:03"
"1620","514","2024-12-01 20:33:03"
"1621","508","2024-12-01 20:33:03"
"1622","485","2024-12-01 20:33:04"
"1623","497","2024-12-01 20:33:04"
"1624","472","2024-12-01 20:33:04"
"1625","490","2024-12-01 20:33:05"
"1626","569","2024-12-01 20:33:05"
"1627","473","2024-12-01 20:33:05"
"1628","510","2024-12-01 20:33:06"
"1629","570","2024-12-01 20:33:06"
"1630","467","2024-12-01 20:33:06"
"1631","479","2024-12-01 20:33:07"
"1632","500","2024-12-01 20:33:07"
"1633","493","2024-12-01 20:33:07"
"1634","510","2024-12-01 20:33:07"
"1635","503","2024-12-01 20:33:08"
"1636","471","2024-12-01 20:33:08"
"1637","481","2024-12-01 20:33:08"
"1638","519","2024-12-01 20:33:08"
"1639","547","2024-12-01 20:33:09"
"1640","519","2024-12-01 20:33:09"
"1641","508","2024-12-01 20:33:10"
"1642","512","2024-12-01 20:33:10"
"1643","502","2024-12-01 20:33:10"
"1644","506","2024-12-01 20:33:11"
"1645","493","2024-12-01 20:33:11"
"1646","647","2024-12-01 20:33:11"
"1647","514","2024-12-01 20:33:11"
"1648","489","2024-12-01 20:33:12"
"1649","528","2024-12-01 20:33:12"
"1650","490","2024-12-01 20:33:12"
"1651","516","2024-12-01 20:33:13"
"1652","519","2024-12-01 20:33:13"
"1653","506","2024-12-01 20:33:13"
"1654","490","2024-12-01 20:33:13"
"1655","520","2024-12-01 20:33:14"
"1656","597","2024-12-01 20:33:14"
"1657","505","2024-12-01 20:33:14"
"1658","499","2024-12-01 20:33:15"
"1659","473","2024-12-01 20:33:15"
"1660","472","2024-12-01 20:33:15"
"1661","524","2024-12-01 20:33:16"
"1662","458","2024-12-01 20:33:16"
"1663","511","2024-12-01 20:33:16"
"1664","507","2024-12-01 20:33:16"
"1665","521","2024-12-01 20:33:17"
"1666","548","2024-12-01 20:33:17"
"1667","503","2024-12-01 20:33:17"
"1668","461","2024-12-01 20:33:18"
"1669","514","2024-12-01 20:33:18"
"1670","495","2024-12-01 20:33:18"
"1671","495","2024-12-01 20:33:18"
"1672","506","2024-12-01 20:33:19"
"1673","540","2024-12-01 20:33:19"
"1674","479","2024-12-01 20:33:19"
"1675","510","2024-12-01 20:33:20"
"1676","496","2024-12-01 20:33:20"
"1677","482","2024-12-01 20:33:20"
"1678","495","2024-12-01 20:33:20"
"1679","518","2024-12-01 20:33:21"
"1680","518","2024-12-01 20:33:21"
"1681","493","2024-12-01 20:33:21"
"1682","613","2024-12-01 20:33:22"
"1683","522","2024-12-01 20:33:22"
"1684","510","2024-12-01 20:33:22"
"1685","474","2024-12-01 20:33:22"
"1686","492","2024-12-01 20:33:23"
"1687","467","2024-12-01 20:33:23"
"1688","497","2024-12-01 20:33:24"
"1689","861","2024-12-01 20:33:24"
"1690","523","2024-12-01 20:33:24"
"1691","517","2024-12-01 20:33:24"
"1692","845","2024-12-01 20:33:25"
"1693","497","2024-12-01 20:33:25"
"1694","517","2024-12-01 20:33:25"
"1695","505","2024-12-01 20:33:25"
"1696","487","2024-12-01 20:33:26"
"1697","477","2024-12-01 20:33:26"
"1698","518","2024-12-01 20:33:26"
"1699","521","2024-12-01 20:33:27"
"1700","493","2024-12-01 20:33:27"
"1701","512","2024-12-01 20:33:27"
"1702","477","2024-12-01 20:33:28"
"1703","526","2024-12-01 20:33:28"
"1704","481","2024-12-01 20:33:28"
"1705","528","2024-12-01 20:33:29"
"1706","508","2024-12-01 20:33:29"
"1707","487","2024-12-01 20:33:29"
"1708","464","2024-12-01 20:33:30"
"1709","499","2024-12-01 20:33:30"
"1710","475","2024-12-01 20:33:30"
"1711","517","2024-12-01 20:33:30"
"1712","476","2024-12-01 20:33:31"
"1713","519","2024-12-01 20:33:31"
"1714","467","2024-12-01 20:33:31"
"1715","537","2024-12-01 20:33:32"
"1716","501","2024-12-01 20:33:32"
"1717","473","2024-12-01 20:33:32"
"1718","482","2024-12-01 20:33:32"
"1719","965","2024-12-01 20:33:33"
"1720","482","2024-12-01 20:33:33"
"1721","517","2024-12-01 20:33:33"
"1722","718","2024-12-01 20:33:34"
"1723","506","2024-12-01 20:33:34"
"1724","680","2024-12-01 20:33:34"
"1725","591","2024-12-01 20:33:34"
"1726","475","2024-12-01 20:33:35"
"1727","460","2024-12-01 20:33:35"
"1728","439","2024-12-01 20:33:35"
"1729","505","2024-12-01 20:33:35"
"1730","490","2024-12-01 20:33:36"
"1731","528","2024-12-01 20:33:36"
"1732","500","2024-12-01 20:33:37"
"1733","529","2024-12-01 20:33:37"
"1734","591","2024-12-01 20:33:37"
"1735","521","2024-12-01 20:33:38"
"1736","535","2024-12-01 20:33:38"
"1737","612","2024-12-01 20:33:38"
"1738","492","2024-12-01 20:33:38"
"1739","525","2024-12-01 20:33:39"
"1740","481","2024-12-01 20:33:39"
"1741","516","2024-12-01 20:33:39"
"1742","501","2024-12-01 20:33:39"
"1743","483","2024-12-01 20:33:40"
"1744","478","2024-12-01 20:33:40"
"1745","525","2024-12-01 20:33:40"
"1746","449","2024-12-01 20:33:41"
"1747","507","2024-12-01 20:33:41"
"1748","499","2024-12-01 20:33:41"
"1749","517","2024-12-01 20:33:41"
"1750","457","2024-12-01 20:33:42"
"1751","478","2024-12-01 20:33:42"
"1752","760","2024-12-01 20:33:42"
"1753","490","2024-12-01 20:33:43"
"1754","516","2024-12-01 20:33:43"
"1755","546","2024-12-01 20:33:43"
"1756","490","2024-12-01 20:33:44"
"1757","517","2024-12-01 20:33:44"
"1758","527","2024-12-01 20:33:44"
"1759","451","2024-12-01 20:33:44"
"1760","517","2024-12-01 20:33:45"
"1761","491","2024-12-01 20:33:45"
"1762","640","2024-12-01 20:33:45"
"1763","528","2024-12-01 20:33:45"
"1764","545","2024-12-01 20:33:46"
"1765","486","2024-12-01 20:33:46"
"1766","485","2024-12-01 20:33:46"
"1767","478","2024-12-01 20:33:47"
"1768","480","2024-12-01 20:33:47"
"1769","499","2024-12-01 20:33:47"
"1770","491","2024-12-01 20:33:48"
"1771","477","2024-12-01 20:33:48"
"1772","520","2024-12-01 20:33:48"
"1773","471","2024-12-01 20:33:49"
"1774","499","2024-12-01 20:33:49"
"1775","552","2024-12-01 20:33:49"
"1776","497","2024-12-01 20:33:50"
"1777","520","2024-12-01 20:33:50"
"1778","465","2024-12-01 20:33:50"
"1779","497","2024-12-01 20:33:51"
"1780","507","2024-12-01 20:33:51"
"1781","503","2024-12-01 20:33:52"
"1782","498","2024-12-01 20:33:54"
"1783","509","2024-12-01 20:33:54"
"1784","530","2024-12-01 20:33:55"
"1785","485","2024-12-01 20:33:55"
"1786","451","2024-12-01 20:33:55"
"1787","523","2024-12-01 20:33:55"
"1788","506","2024-12-01 20:33:56"
"1789","496","2024-12-01 20:33:56"
"1790","462","2024-12-01 20:33:56"
"1791","528","2024-12-01 20:33:57"
"1792","464","2024-12-01 20:33:57"
"1793","497","2024-12-01 20:33:57"
"1794","470","2024-12-01 20:33:58"
"1795","467","2024-12-01 20:33:58"
"1796","505","2024-12-01 20:33:58"
"1797","557","2024-12-01 20:33:58"
"1798","480","2024-12-01 20:33:59"
"1799","470","2024-12-01 20:33:59"
"1800","489","2024-12-01 20:33:59"
"1801","485","2024-12-01 20:34:00"
"1802","529","2024-12-01 20:34:00"
"1803","513","2024-12-01 20:34:00"
"1804","584","2024-12-01 20:34:01"
"1805","558","2024-12-01 20:34:01"
"1806","524","2024-12-01 20:34:01"
"1807","562","2024-12-01 20:34:01"
"1808","528","2024-12-01 20:34:02"
"1809","518","2024-12-01 20:34:02"
"1810","474","2024-12-01 20:34:02"
"1811","515","2024-12-01 20:34:03"
"1812","504","2024-12-01 20:34:03"
"1813","532","2024-12-01 20:34:03"
"1814","538","2024-12-01 20:34:04"
"1815","517","2024-12-01 20:34:07"
"1816","750","2024-12-01 20:34:07"
"1817","508","2024-12-01 20:34:07"
"1818","534","2024-12-01 20:34:08"
"1819","493","2024-12-01 20:34:08"
"1820","522","2024-12-01 20:34:08"
"1821","538","2024-12-01 20:34:09"
"1822","481","2024-12-01 20:34:09"
"1823","509","2024-12-01 20:34:09"
"1824","532","2024-12-01 20:34:09"
"1825","475","2024-12-01 20:34:10"
"1826","526","2024-12-01 20:34:10"
"1827","484","2024-12-01 20:34:10"
"1828","541","2024-12-01 20:34:11"
"1829","472","2024-12-01 20:34:11"
"1830","533","2024-12-01 20:34:11"
"1831","500","2024-12-01 20:34:12"
"1832","497","2024-12-01 20:34:12"
"1833","545","2024-12-01 20:34:12"
"1834","489","2024-12-01 20:34:12"
"1835","526","2024-12-01 20:34:13"
"1836","488","2024-12-01 20:34:13"
"1837","502","2024-12-01 20:34:13"
"1838","465","2024-12-01 20:34:13"
"1839","526","2024-12-01 20:34:14"
"1840","667","2024-12-01 20:34:14"
"1841","477","2024-12-01 20:34:14"
"1842","533","2024-12-01 20:34:15"
"1843","469","2024-12-01 20:34:15"
"1844","538","2024-12-01 20:34:15"
"1845","503","2024-12-01 20:34:15"
"1846","627","2024-12-01 20:34:16"
"1847","508","2024-12-01 20:34:16"
"1848","522","2024-12-01 20:34:16"
"1849","505","2024-12-01 20:34:17"
"1850","526","2024-12-01 20:34:17"
"1851","547","2024-12-01 20:34:17"
"1852","473","2024-12-01 20:34:17"
"1853","503","2024-12-01 20:34:18"
"1854","501","2024-12-01 20:34:18"
"1855","527","2024-12-01 20:34:18"
"1856","526","2024-12-01 20:34:19"
"1857","488","2024-12-01 20:34:19"
"1858","486","2024-12-01 20:34:19"
"1859","494","2024-12-01 20:34:20"
"1860","701","2024-12-01 20:34:20"
"1861","492","2024-12-01 20:34:20"
"1862","502","2024-12-01 20:34:20"
"1863","527","2024-12-01 20:34:21"
"1864","481","2024-12-01 20:34:21"
"1865","514","2024-12-01 20:34:21"
"1866","794","2024-12-01 20:34:21"
"1867","517","2024-12-01 20:34:22"
"1868","528","2024-12-01 20:34:22"
"1869","633","2024-12-01 20:34:22"
"1870","509","2024-12-01 20:34:23"
"1871","525","2024-12-01 20:34:23"
"1872","471","2024-12-01 20:34:23"
"1873","516","2024-12-01 20:34:24"
"1874","507","2024-12-01 20:34:24"
"1875","472","2024-12-01 20:34:24"
"1876","530","2024-12-01 20:34:25"
"1877","522","2024-12-01 20:34:25"
"1878","493","2024-12-01 20:34:25"
"1879","528","2024-12-01 20:34:25"
"1880","522","2024-12-01 20:34:26"
"1881","489","2024-12-01 20:34:26"
"1882","508","2024-12-01 20:34:26"
"1883","508","2024-12-01 20:34:27"
"1884","484","2024-12-01 20:34:27"
"1885","462","2024-12-01 20:34:27"
"1886","519","2024-12-01 20:34:27"
"1887","565","2024-12-01 20:34:28"
"1888","545","2024-12-01 20:34:28"
"1889","526","2024-12-01 20:34:28"
"1890","513","2024-12-01 20:34:29"
"1891","490","2024-12-01 20:34:29"
"1892","767","2024-12-01 20:34:29"
"1893","507","2024-12-01 20:34:29"
"1894","493","2024-12-01 20:34:30"
"1895","619","2024-12-01 20:34:30"
"1896","512","2024-12-01 20:34:30"
"1897","540","2024-12-01 20:34:31"
"1898","498","2024-12-01 20:34:31"
"1899","484","2024-12-01 20:34:31"
"1900","535","2024-12-01 20:34:32"
"1901","477","2024-12-01 20:34:32"
"1902","524","2024-12-01 20:34:32"
"1903","500","2024-12-01 20:34:32"
"1904","545","2024-12-01 20:34:33"
"1905","512","2024-12-01 20:34:33"
"1906","515","2024-12-01 20:34:33"
"1907","518","2024-12-01 20:34:34"
"1908","510","2024-12-01 20:34:34"
"1909","767","2024-12-01 20:34:34"
"1910","481","2024-12-01 20:34:34"
"1911","548","2024-12-01 20:34:35"
"1912","494","2024-12-01 20:34:35"
"1913","517","2024-12-01 20:34:35"
"1914","516","2024-12-01 20:34:36"
"1915","567","2024-12-01 20:34:36"
"1916","508","2024-12-01 20:34:36"
"1917","772","2024-12-01 20:34:37"
"1918","476","2024-12-01 20:34:37"
"1919","521","2024-12-01 20:34:37"
"1920","501","2024-12-01 20:34:37"
"1921","512","2024-12-01 20:34:38"
"1922","522","2024-12-01 20:34:38"
"1923","538","2024-12-01 20:34:38"
"1924","503","2024-12-01 20:34:39"
"1925","477","2024-12-01 20:34:39"
"1926","491","2024-12-01 20:34:39"
"1927","551","2024-12-01 20:34:39"
"1928","456","2024-12-01 20:34:40"
"1929","483","2024-12-01 20:34:40"
"1930","872","2024-12-01 20:34:40"
"1931","485","2024-12-01 20:34:41"
"1932","505","2024-12-01 20:34:41"
"1933","461","2024-12-01 20:34:41"
"1934","469","2024-12-01 20:34:42"
"1935","507","2024-12-01 20:34:42"
"1936","501","2024-12-01 20:34:42"
"1937","505","2024-12-01 20:34:42"
"1938","495","2024-12-01 20:34:43"
"1939","529","2024-12-01 20:34:43"
"1940","651","2024-12-01 20:34:43"
"1941","512","2024-12-01 20:34:44"
"1942","498","2024-12-01 20:34:44"
"1943","511","2024-12-01 20:34:44"
"1944","534","2024-12-01 20:34:45"
"1945","463","2024-12-01 20:34:45"
"1946","525","2024-12-01 20:34:45"
"1947","500","2024-12-01 20:34:45"
"1948","511","2024-12-01 20:34:46"
"1949","498","2024-12-01 20:34:46"
"1950","460","2024-12-01 20:34:46"
"1951","464","2024-12-01 20:34:47"
"1952","488","2024-12-01 20:34:47"
"1953","466","2024-12-01 20:34:47"
"1954","516","2024-12-01 20:34:48"
"1955","470","2024-12-01 20:34:48"
"1956","494","2024-12-01 20:34:48"
"1957","519","2024-12-01 20:34:48"
"1958","520","2024-12-01 20:34:49"
"1959","522","2024-12-01 20:34:49"
"1960","515","2024-12-01 20:34:49"
"1961","513","2024-12-01 20:34:50"
"1962","543","2024-12-01 20:34:50"
"1963","491","2024-12-01 20:34:50"
"1964","516","2024-12-01 20:34:51"
"1965","539","2024-12-01 20:34:51"
"1966","511","2024-12-01 20:34:51"
"1967","531","2024-12-01 20:34:52"
"1968","558","2024-12-01 20:34:52"
"1969","542","2024-12-01 20:34:52"
"1970","512","2024-12-01 20:34:53"
"1971","468","2024-12-01 20:34:53"
"1972","539","2024-12-01 20:34:53"
"1973","451","2024-12-01 20:34:53"
"1974","479","2024-12-01 20:34:54"
"1975","624","2024-12-01 20:34:54"
"1976","464","2024-12-01 20:34:54"
"1977","486","2024-12-01 20:34:55"
"1978","454","2024-12-01 20:34:55"
"1979","475","2024-12-01 20:34:55"
"1980","488","2024-12-01 20:34:55"
"1981","455","2024-12-01 20:34:56"
"1982","528","2024-12-01 20:34:56"
"1983","479","2024-12-01 20:34:56"
"1984","494","2024-12-01 20:34:57"
"1985","496","2024-12-01 20:34:57"
"1986","465","2024-12-01 20:34:57"
"1987","539","2024-12-01 20:34:58"
"1988","507","2024-12-01 20:34:58"
"1989","507","2024-12-01 20:34:58"
"1990","469","2024-12-01 20:34:58"
"1991","533","2024-12-01 20:34:59"
"1992","470","2024-12-01 20:34:59"
"1993","495","2024-12-01 20:34:59"
"1994","531","2024-12-01 20:34:59"
"1995","488","2024-12-01 20:35:00"
"1996","517","2024-12-01 20:35:00"
"1997","518","2024-12-01 20:35:00"
"1998","496","2024-12-01 20:35:01"
"1999","506","2024-12-01 20:35:01"
"2000","635","2024-12-01 20:35:01"
"2001","500","2024-12-01 20:35:02"
"2002","506","2024-12-01 20:35:02"
"2003","527","2024-12-01 20:35:02"
"2004","517","2024-12-01 20:35:03"
"2005","467","2024-12-01 20:35:03"
"2006","523","2024-12-01 20:35:03"
"2007","822","2024-12-01 20:35:04"
"2008","466","2024-12-01 20:35:04"
"2009","550","2024-12-01 20:35:04"
"2010","437","2024-12-01 20:35:04"
"2011","502","2024-12-01 20:35:05"
"2012","546","2024-12-01 20:35:05"
"2013","546","2024-12-01 20:35:05"
"2014","504","2024-12-01 20:35:06"
"2015","652","2024-12-01 20:35:06"
"2016","492","2024-12-01 20:35:06"
"2017","498","2024-12-01 20:35:06"
"2018","447","2024-12-01 20:35:07"
"2019","487","2024-12-01 20:35:07"
"2020","850","2024-12-01 20:35:07"
"2021","521","2024-12-01 20:35:08"
"2022","550","2024-12-01 20:35:08"
"2023","543","2024-12-01 20:35:08"
"2024","492","2024-12-01 20:35:09"
"2025","458","2024-12-01 20:35:09"
"2026","477","2024-12-01 20:35:09"
"2027","513","2024-12-01 20:35:10"
"2028","441","2024-12-01 20:35:10"
"2029","479","2024-12-01 20:35:10"
"2030","471","2024-12-01 20:35:10"
"2031","486","2024-12-01 20:35:11"
"2032","520","2024-12-01 20:35:11"
"2033","488","2024-12-01 20:35:11"
"2034","489","2024-12-01 20:35:12"
"2035","489","2024-12-01 20:35:12"
"2036","538","2024-12-01 20:35:12"
"2037","488","2024-12-01 20:35:12"
"2038","524","2024-12-01 20:35:13"
"2039","839","2024-12-01 20:35:13"
"2040","491","2024-12-01 20:35:13"
"2041","512","2024-12-01 20:35:14"
"2042","510","2024-12-01 20:35:14"
"2043","526","2024-12-01 20:35:14"
"2044","512","2024-12-01 20:35:15"
"2045","469","2024-12-01 20:35:15"
"2046","521","2024-12-01 20:35:15"
"2047","504","2024-12-01 20:35:15"
"2048","512","2024-12-01 20:35:16"
"2049","543","2024-12-01 20:35:16"
"2050","490","2024-12-01 20:35:16"
"2051","523","2024-12-01 20:35:16"
"2052","501","2024-12-01 20:35:17"
"2053","521","2024-12-01 20:35:17"
"2054","498","2024-12-01 20:35:17"
"2055","484","2024-12-01 20:35:18"
"2056","503","2024-12-01 20:35:18"
"2057","471","2024-12-01 20:35:18"
"2058","507","2024-12-01 20:35:19"
"2059","498","2024-12-01 20:35:19"
"2060","514","2024-12-01 20:35:19"
"2061","535","2024-12-01 20:35:19"
"2062","526","2024-12-01 20:35:20"
"2063","497","2024-12-01 20:35:20"
"2064","520","2024-12-01 20:35:20"
"2065","517","2024-12-01 20:35:21"
"2066","484","2024-12-01 20:35:21"
"2067","507","2024-12-01 20:35:21"
"2068","465","2024-12-01 20:35:22"
"2069","531","2024-12-01 20:35:22"
"2070","760","2024-12-01 20:35:23"
"2071","471","2024-12-01 20:39:57"
"2072","748","2024-12-01 20:39:59"
"2073","726","2024-12-01 20:39:59"
"2074","758","2024-12-01 20:40:00"
"2075","571","2024-12-01 20:40:00"
"2076","500","2024-12-01 20:40:00"
"2077","571","2024-12-01 20:40:01"
"2078","595","2024-12-01 20:40:01"
"2079","563","2024-12-01 20:40:01"
"2080","637","2024-12-01 20:40:01"
"2081","871","2024-12-01 20:40:02"
"2082","551","2024-12-01 20:40:02"
"2083","652","2024-12-01 20:40:02"
"2084","644","2024-12-01 20:40:03"
"2085","684","2024-12-01 20:40:03"
"2086","550","2024-12-01 20:40:03"
"2087","748","2024-12-01 20:40:03"
"2088","489","2024-12-01 20:40:04"
"2089","509","2024-12-01 20:40:04"
"2090","521","2024-12-01 20:40:04"
"2091","784","2024-12-01 20:40:04"
"2092","764","2024-12-01 20:40:05"
"2093","726","2024-12-01 20:40:05"
"2094","720","2024-12-01 20:40:05"
"2095","603","2024-12-01 20:40:06"
"2096","551","2024-12-01 20:40:06"
"2097","546","2024-12-01 20:40:06"
"2104","643","2024-12-01 20:40:09"
"2105","594","2024-12-01 20:40:09"
"2106","821","2024-12-01 20:40:10"
"2107","646","2024-12-01 20:40:10"
"2108","591","2024-12-01 20:40:10"
"2109","666","2024-12-01 20:40:11"
"2110","536","2024-12-01 20:40:11"
"2111","551","2024-12-01 20:40:11"
"2112","564","2024-12-01 20:40:12"
"2113","543","2024-12-01 20:40:12"
"2114","696","2024-12-01 20:40:12"
"2115","532","2024-12-01 20:40:12"
"2116","550","2024-12-01 20:40:13"
"2117","556","2024-12-01 20:40:13"
"2118","532","2024-12-01 20:40:13"
"2119","607","2024-12-01 20:40:14"
"2120","509","2024-12-01 20:40:14"
"2121","535","2024-12-01 20:40:14"
"2122","519","2024-12-01 20:40:15"
"2123","547","2024-12-01 20:40:15"
"2124","585","2024-12-01 20:40:15"
"2125","576","2024-12-01 20:40:15"
"2126","521","2024-12-01 20:40:16"
"2127","583","2024-12-01 20:40:16"
"2128","550","2024-12-01 20:40:16"
"2129","566","2024-12-01 20:40:17"
"2130","689","2024-12-01 20:40:17"
"2131","602","2024-12-01 20:40:17"
"2132","592","2024-12-01 20:40:17"
"2133","527","2024-12-01 20:40:18"
"2134","514","2024-12-01 20:40:18"
"2135","553","2024-12-01 20:40:18"
"2136","540","2024-12-01 20:40:18"
"2137","574","2024-12-01 20:40:19"
"2138","520","2024-12-01 20:40:19"
"2139","507","2024-12-01 20:40:19"
"2140","558","2024-12-01 20:40:20"
"2141","510","2024-12-01 20:40:20"
"2142","500","2024-12-01 20:40:20"
"2143","511","2024-12-01 20:40:21"
"2144","578","2024-12-01 20:40:21"
"2145","594","2024-12-01 20:40:21"
"2146","570","2024-12-01 20:40:22"
"2147","625","2024-12-01 20:40:22"
"2148","516","2024-12-01 20:40:22"
"2149","587","2024-12-01 20:40:23"
"2150","592","2024-12-01 20:40:23"
"2151","589","2024-12-01 20:40:23"
"2152","541","2024-12-01 20:40:23"
"2153","514","2024-12-01 20:40:24"
"2154","526","2024-12-01 20:40:24"
"2155","478","2024-12-01 20:40:24"
"2156","517","2024-12-01 20:40:25"
"2157","508","2024-12-01 20:40:25"
"2158","561","2024-12-01 20:40:25"
"2159","549","2024-12-01 20:40:26"
"2160","511","2024-12-01 20:40:26"
"2161","556","2024-12-01 20:40:26"
"2162","537","2024-12-01 20:40:26"
"2163","538","2024-12-01 20:40:27"
"2164","522","2024-12-01 20:40:27"
"2165","544","2024-12-01 20:40:27"
"2166","578","2024-12-01 20:40:28"
"2167","835","2024-12-01 20:40:28"
"2168","548","2024-12-01 20:40:28"
"2169","569","2024-12-01 20:40:29"
"2170","538","2024-12-01 20:40:29"
"2171","533","2024-12-01 20:40:29"
"2172","753","2024-12-01 20:40:31"
"2173","720","2024-12-01 20:40:31"
"2174","490","2024-12-01 20:40:31"
"2175","461","2024-12-01 20:40:31"
"2176","392","2024-12-01 20:40:32"
"2177","483","2024-12-01 20:40:32"
"2178","545","2024-12-01 20:40:32"
"2179","529","2024-12-01 20:40:33"
"2180","915","2024-12-01 20:40:33"
"2181","541","2024-12-01 20:40:33"
"2182","533","2024-12-01 20:40:33"
"2183","507","2024-12-01 20:40:34"
"2184","623","2024-12-01 20:40:34"
"2185","535","2024-12-01 20:40:34"
"2186","571","2024-12-01 20:40:35"
"2187","553","2024-12-01 20:40:35"
"2188","547","2024-12-01 20:40:35"
"2189","481","2024-12-01 20:40:35"
"2190","562","2024-12-01 20:40:36"
"2191","545","2024-12-01 20:40:36"
"2192","518","2024-12-01 20:40:36"
"2193","557","2024-12-01 20:40:37"
"2194","516","2024-12-01 20:40:37"
"2195","489","2024-12-01 20:40:37"
"2196","475","2024-12-01 20:40:38"
"2197","505","2024-12-01 20:40:38"
"2198","497","2024-12-01 20:40:38"
"2199","528","2024-12-01 20:40:39"
"2200","483","2024-12-01 20:40:39"
"2201","489","2024-12-01 20:40:39"
"2202","597","2024-12-01 20:40:40"
"2203","567","2024-12-01 20:40:40"
"2204","546","2024-12-01 20:40:40"
"2205","570","2024-12-01 20:40:41"
"2206","789","2024-12-01 20:40:41"
"2207","609","2024-12-01 20:40:41"
"2208","495","2024-12-01 20:40:41"
"2209","520","2024-12-01 20:40:42"
"2210","541","2024-12-01 20:40:42"
"2211","572","2024-12-01 20:40:42"
"2212","548","2024-12-01 20:40:43"
"2213","533","2024-12-01 20:40:43"
"2214","530","2024-12-01 20:40:43"
"2215","512","2024-12-01 20:40:44"
"2216","728","2024-12-01 20:40:44"
"2217","480","2024-12-01 20:40:44"
"2218","559","2024-12-01 20:40:45"
"2219","527","2024-12-01 20:40:45"
"2220","480","2024-12-01 20:40:45"
"2221","522","2024-12-01 20:40:45"
"2222","530","2024-12-01 20:40:46"
"2223","522","2024-12-01 20:40:46"
"2224","505","2024-12-01 20:40:47"
"2225","477","2024-12-01 20:40:47"
"2226","611","2024-12-01 20:40:47"
"2227","460","2024-12-01 20:40:48"
"2228","493","2024-12-01 20:40:48"
"2229","617","2024-12-01 20:40:48"
"2230","565","2024-12-01 20:40:48"
"2231","791","2024-12-01 20:40:49"
"2232","534","2024-12-01 20:40:49"
"2233","482","2024-12-01 20:40:49"
"2234","459","2024-12-01 20:40:50"
"2235","525","2024-12-01 20:40:50"
"2236","511","2024-12-01 20:40:50"
"2237","517","2024-12-01 20:40:50"
"2238","515","2024-12-01 20:40:51"
"2239","474","2024-12-01 20:40:51"
"2240","592","2024-12-01 20:40:51"
"2241","487","2024-12-01 20:40:52"
"2242","891","2024-12-01 20:40:52"
"2243","562","2024-12-01 20:40:52"
"2244","544","2024-12-01 20:40:52"
"2245","477","2024-12-01 20:40:53"
"2246","542","2024-12-01 20:40:53"
"2247","556","2024-12-01 20:40:53"
"2248","531","2024-12-01 20:40:54"
"2249","516","2024-12-01 20:40:54"
"2250","512","2024-12-01 20:40:54"
"2251","568","2024-12-01 20:40:54"
"2252","579","2024-12-01 20:40:55"
"2253","489","2024-12-01 20:40:55"
"2254","516","2024-12-01 20:40:55"
"2255","235","2024-12-01 20:40:56"
"2256","753","2024-12-01 20:40:56"
"2257","670","2024-12-01 20:40:56"
"2258","313","2024-12-01 20:40:56"
"2259","493","2024-12-01 20:40:57"
"2260","749","2024-12-01 20:40:57"
"2261","495","2024-12-01 20:40:57"
"2262","894","2024-12-01 20:40:57"
"2263","754","2024-12-01 20:40:58"
"2264","653","2024-12-01 20:40:58"
"2265","409","2024-12-01 20:40:58"
"2266","776","2024-12-01 20:40:59"
"2267","495","2024-12-01 20:40:59"
"2268","511","2024-12-01 20:40:59"
"2269","895","2024-12-01 20:40:59"
"2270","760","2024-12-01 20:41:00"
"2271","747","2024-12-01 20:41:00"
"2272","758","2024-12-01 20:41:00"
"2273","757","2024-12-01 20:41:01"
"2274","736","2024-12-01 20:41:01"
"2275","676","2024-12-01 20:41:01"
"2276","469","2024-12-01 20:41:01"
"2277","236","2024-12-01 20:41:02"
"2278","771","2024-12-01 20:41:02"
"2279","379","2024-12-01 20:41:02"
"2280","632","2024-12-01 20:41:03"
"2281","483","2024-12-01 20:41:03"
"2282","495","2024-12-01 20:41:03"
"2283","524","2024-12-01 20:41:03"
"2284","487","2024-12-01 20:41:04"
"2285","653","2024-12-01 20:41:04"
"2286","458","2024-12-01 20:41:04"
"2287","268","2024-12-01 20:41:05"
"2288","531","2024-12-01 20:41:05"
"2289","643","2024-12-01 20:41:05"
"2290","238","2024-12-01 20:41:05"
"2291","548","2024-12-01 20:41:06"
"2292","227","2024-12-01 20:41:06"
"2293","250","2024-12-01 20:41:06"
"2294","251","2024-12-01 20:41:07"
"2295","519","2024-12-01 20:41:07"
"2296","630","2024-12-01 20:41:07"
"2297","251","2024-12-01 20:41:07"
"2298","277","2024-12-01 20:41:08"
"2299","575","2024-12-01 20:41:08"
"2300","504","2024-12-01 20:41:08"
"2301","244","2024-12-01 20:41:09"
"2302","545","2024-12-01 20:41:09"
"2303","516","2024-12-01 20:41:09"
"2304","757","2024-12-01 20:41:10"
"2305","724","2024-12-01 20:41:10"
"2306","738","2024-12-01 20:41:10"
"2307","767","2024-12-01 20:41:11"
"2308","732","2024-12-01 20:41:11"
"2309","754","2024-12-01 20:41:11"
"2310","750","2024-12-01 20:41:11"
"2311","657","2024-12-01 20:41:12"
"2312","552","2024-12-01 20:41:12"
"2313","379","2024-12-01 20:41:12"
"2314","243","2024-12-01 20:41:13"
"2315","544","2024-12-01 20:41:13"
"2316","677","2024-12-01 20:41:13"
"2317","518","2024-12-01 20:41:13"
"2318","503","2024-12-01 20:41:14"
"2319","752","2024-12-01 20:41:14"
"2320","750","2024-12-01 20:41:14"
"2321","757","2024-12-01 20:41:15"
"2322","854","2024-12-01 20:41:15"
"2323","753","2024-12-01 20:41:15"
"2324","252","2024-12-01 20:41:16"
"2325","742","2024-12-01 20:41:16"
"2326","657","2024-12-01 20:41:16"
"2327","288","2024-12-01 20:41:17"
"2328","251","2024-12-01 20:41:17"
"2329","778","2024-12-01 20:41:17"
"2330","750","2024-12-01 20:41:17"
"2331","755","2024-12-01 20:41:18"
"2332","761","2024-12-01 20:41:18"
"2333","717","2024-12-01 20:41:18"
"2334","247","2024-12-01 20:41:19"
"2335","488","2024-12-01 20:41:19"
"2336","770","2024-12-01 20:41:19"
"2337","533","2024-12-01 20:41:20"
"2338","533","2024-12-01 20:41:20"
"2339","585","2024-12-01 20:41:20"
"2340","582","2024-12-01 20:41:21"
"2341","274","2024-12-01 20:41:21"
"2342","261","2024-12-01 20:41:21"
"2343","457","2024-12-01 20:41:22"
"2344","480","2024-12-01 20:41:22"
"2345","332","2024-12-01 20:41:22"
"2346","253","2024-12-01 20:41:23"
"2347","301","2024-12-01 20:41:23"
"2348","497","2024-12-01 20:41:23"
"2349","520","2024-12-01 20:41:23"
"2350","248","2024-12-01 20:41:24"
"2351","258","2024-12-01 20:41:24"
"2352","506","2024-12-01 20:41:24"
"2353","269","2024-12-01 20:41:25"
"2354","612","2024-12-01 20:41:25"
"2355","612","2024-12-01 20:41:25"
"2356","612","2024-12-01 20:41:25"
"2357","672","2024-12-01 20:41:26"
"2358","373","2024-12-01 20:41:26"
"2359","673","2024-12-01 20:41:26"
"2360","744","2024-12-01 20:41:27"
"2361","842","2024-12-01 20:41:27"
"2362","525","2024-12-01 20:41:27"
"2363","557","2024-12-01 20:41:27"
"2364","801","2024-12-01 20:41:28"
"2365","741","2024-12-01 20:41:28"
"2366","741","2024-12-01 20:41:28"
"2367","741","2024-12-01 20:41:28"
"2368","741","2024-12-01 20:41:29"
"2369","539","2024-12-01 20:41:29"
"2370","850","2024-12-01 20:41:29"
"2371","488","2024-12-01 20:41:30"
"2372","753","2024-12-01 20:41:30"
"2373","760","2024-12-01 20:41:30"
"2374","726","2024-12-01 20:41:30"
"2375","749","2024-12-01 20:41:31"
"2376","758","2024-12-01 20:41:31"
"2377","597","2024-12-01 20:41:31"
"2378","473","2024-12-01 20:41:32"
"2379","441","2024-12-01 20:41:32"
"2380","677","2024-12-01 20:41:32"
"2381","534","2024-12-01 20:41:32"
"2382","655","2024-12-01 20:41:33"
"2383","555","2024-12-01 20:41:33"
"2384","570","2024-12-01 20:41:33"
"2385","592","2024-12-01 20:41:33"
"2386","671","2024-12-01 20:41:34"
"2387","678","2024-12-01 20:41:34"
"2388","623","2024-12-01 20:41:34"
"2389","583","2024-12-01 20:41:35"
"2390","636","2024-12-01 20:41:35"
"2391","611","2024-12-01 20:41:35"
"2392","697","2024-12-01 20:41:35"
"2393","641","2024-12-01 20:41:36"
"2394","623","2024-12-01 20:41:36"
"2395","566","2024-12-01 20:41:36"
"2396","666","2024-12-01 20:41:37"
"2397","594","2024-12-01 20:41:37"
"2398","630","2024-12-01 20:41:37"
"2399","596","2024-12-01 20:41:38"
"2400","630","2024-12-01 20:41:38"
"2401","639","2024-12-01 20:41:38"
"2402","626","2024-12-01 20:41:38"
"2403","546","2024-12-01 20:41:39"
"2404","617","2024-12-01 20:41:39"
"2405","706","2024-12-01 20:41:39"
"2406","533","2024-12-01 20:41:40"
"2407","603","2024-12-01 20:41:40"
"2408","695","2024-12-01 20:41:40"
"2409","568","2024-12-01 20:41:41"
"2410","526","2024-12-01 20:41:41"
"2411","569","2024-12-01 20:41:41"
"2412","601","2024-12-01 20:41:41"
"2413","588","2024-12-01 20:41:42"
"2414","614","2024-12-01 20:41:42"
"2415","625","2024-12-01 20:41:42"
"2416","501","2024-12-01 20:41:42"
"2417","559","2024-12-01 20:41:43"
"2418","549","2024-12-01 20:41:43"
"2419","877","2024-12-01 20:41:43"
"2420","596","2024-12-01 20:41:44"
"2421","614","2024-12-01 20:41:44"
"2422","593","2024-12-01 20:41:44"
"2423","541","2024-12-01 20:41:45"
"2424","541","2024-12-01 20:41:45"
"2425","566","2024-12-01 20:41:45"
"2426","539","2024-12-01 20:41:46"
"2427","514","2024-12-01 20:41:46"
"2428","581","2024-12-01 20:41:46"
"2429","607","2024-12-01 20:41:47"
"2430","639","2024-12-01 20:41:47"
"2431","585","2024-12-01 20:41:47"
"2432","568","2024-12-01 20:41:48"
"2433","575","2024-12-01 20:41:48"
"2434","785","2024-12-01 20:41:48"
"2435","626","2024-12-01 20:41:49"
"2436","549","2024-12-01 20:41:49"
"2437","587","2024-12-01 20:41:49"
"2438","504","2024-12-01 20:41:49"
"2439","541","2024-12-01 20:41:50"
"2440","579","2024-12-01 20:41:50"
"2441","575","2024-12-01 20:41:50"
"2442","508","2024-12-01 20:41:51"
"2443","582","2024-12-01 20:41:51"
"2444","572","2024-12-01 20:41:51"
"2445","481","2024-12-01 20:41:52"
"2446","538","2024-12-01 20:41:52"
"2447","586","2024-12-01 20:41:52"
"2448","487","2024-12-01 20:41:53"
"2449","566","2024-12-01 20:41:53"
"2450","579","2024-12-01 20:41:53"
"2451","566","2024-12-01 20:41:53"
"2452","578","2024-12-01 20:41:54"
"2453","559","2024-12-01 20:41:54"
"2454","573","2024-12-01 20:41:54"
"2455","497","2024-12-01 20:41:54"
"2456","545","2024-12-01 20:41:55"
"2457","551","2024-12-01 20:41:55"
"2458","506","2024-12-01 20:41:55"
"2459","482","2024-12-01 20:41:56"
"2460","571","2024-12-01 20:41:56"
"2461","557","2024-12-01 20:41:56"
"2462","564","2024-12-01 20:41:57"
"2463","547","2024-12-01 20:41:57"
"2464","603","2024-12-01 20:41:57"
"2465","639","2024-12-01 20:41:58"
"2466","499","2024-12-01 20:41:58"
"2467","524","2024-12-01 20:41:58"
"2468","555","2024-12-01 20:41:59"
"2469","528","2024-12-01 20:41:59"
"2470","876","2024-12-01 20:41:59"
"2471","567","2024-12-01 20:41:59"
"2472","534","2024-12-01 20:42:00"
"2473","490","2024-12-01 20:42:00"
"2474","522","2024-12-01 20:42:00"
"2475","589","2024-12-01 20:42:01"
"2476","561","2024-12-01 20:42:01"
"2477","572","2024-12-01 20:42:01"
"2478","504","2024-12-01 20:42:02"
"2479","577","2024-12-01 20:42:02"
"2480","476","2024-12-01 20:42:02"
"2481","508","2024-12-01 20:42:03"
"2482","588","2024-12-01 20:42:03"
"2483","513","2024-12-01 20:42:03"
"2484","510","2024-12-01 20:42:03"
"2485","563","2024-12-01 20:42:04"
"2486","527","2024-12-01 20:42:04"
"2487","514","2024-12-01 20:42:04"
"2488","552","2024-12-01 20:42:04"
"2489","514","2024-12-01 20:42:05"
"2490","479","2024-12-01 20:42:05"
"2491","562","2024-12-01 20:42:05"
"2492","567","2024-12-01 20:42:06"
"2493","556","2024-12-01 20:42:06"
"2494","527","2024-12-01 20:42:06"
"2495","581","2024-12-01 20:42:07"
"2496","555","2024-12-01 20:42:07"
"2497","559","2024-12-01 20:42:07"
"2498","530","2024-12-01 20:42:08"
"2499","762","2024-12-01 20:42:08"
"2500","561","2024-12-01 20:42:08"
"2501","573","2024-12-01 20:42:09"
"2502","500","2024-12-01 20:42:09"
"2503","612","2024-12-01 20:42:09"
"2504","568","2024-12-01 20:42:09"
"2505","765","2024-12-01 20:42:10"
"2506","473","2024-12-01 20:42:10"
"2507","491","2024-12-01 20:42:10"
"2508","531","2024-12-01 20:42:11"
"2509","482","2024-12-01 20:42:11"
"2510","504","2024-12-01 20:42:11"
"2511","519","2024-12-01 20:42:11"
"2512","494","2024-12-01 20:42:12"
"2513","563","2024-12-01 20:42:12"
"2514","815","2024-12-01 20:42:12"
"2515","557","2024-12-01 20:42:13"
"2516","551","2024-12-01 20:42:13"
"2517","457","2024-12-01 20:42:13"
"2518","514","2024-12-01 20:42:13"
"2519","479","2024-12-01 20:42:14"
"2520","507","2024-12-01 20:42:14"
"2521","542","2024-12-01 20:42:14"
"2522","557","2024-12-01 20:42:15"
"2523","523","2024-12-01 20:42:15"
"2524","622","2024-12-01 20:42:15"
"2525","572","2024-12-01 20:42:16"
"2526","552","2024-12-01 20:42:16"
"2527","648","2024-12-01 20:42:16"
"2528","553","2024-12-01 20:42:16"
"2529","521","2024-12-01 20:42:17"
"2530","590","2024-12-01 20:42:17"
"2531","496","2024-12-01 20:42:18"
"2532","506","2024-12-01 20:42:18"
"2533","563","2024-12-01 20:42:18"
"2534","563","2024-12-01 20:42:19"
"2535","536","2024-12-01 20:42:19"
"2536","561","2024-12-01 20:42:19"
"2537","522","2024-12-01 20:42:19"
"2538","501","2024-12-01 20:42:20"
"2539","539","2024-12-01 20:42:20"
"2540","572","2024-12-01 20:42:20"
"2541","567","2024-12-01 20:42:21"
"2542","549","2024-12-01 20:42:21"
"2543","475","2024-12-01 20:42:21"
"2544","584","2024-12-01 20:42:21"
"2545","550","2024-12-01 20:42:22"
"2546","534","2024-12-01 20:42:22"
"2547","504","2024-12-01 20:42:22"
"2548","571","2024-12-01 20:42:23"
"2549","549","2024-12-01 20:42:23"
"2550","561","2024-12-01 20:42:23"
"2551","491","2024-12-01 20:42:24"
"2552","551","2024-12-01 20:42:24"
"2553","512","2024-12-01 20:42:24"
"2554","595","2024-12-01 20:42:25"
"2555","473","2024-12-01 20:42:25"
"2556","490","2024-12-01 20:42:25"
"2557","489","2024-12-01 20:42:26"
"2558","512","2024-12-01 20:42:26"
"2559","448","2024-12-01 20:42:26"
"2560","498","2024-12-01 20:42:27"
"2561","517","2024-12-01 20:42:27"
"2562","536","2024-12-01 20:42:27"
"2563","477","2024-12-01 20:42:27"
"2564","562","2024-12-01 20:42:28"
"2565","476","2024-12-01 20:42:28"
"2566","490","2024-12-01 20:42:28"
"2567","531","2024-12-01 20:42:29"
"2568","526","2024-12-01 20:42:29"
"2569","519","2024-12-01 20:42:29"
"2570","552","2024-12-01 20:42:29"
"2571","566","2024-12-01 20:42:30"
"2572","531","2024-12-01 20:42:30"
"2573","537","2024-12-01 20:42:30"
"2574","562","2024-12-01 20:42:31"
"2575","564","2024-12-01 20:42:31"
"2576","516","2024-12-01 20:42:31"
"2577","500","2024-12-01 20:42:32"
"2578","567","2024-12-01 20:42:32"
"2579","480","2024-12-01 20:42:32"
"2580","500","2024-12-01 20:42:33"
"2581","558","2024-12-01 20:42:33"
"2582","552","2024-12-01 20:42:33"
"2583","488","2024-12-01 20:42:34"
"2584","477","2024-12-01 20:42:34"
"2585","536","2024-12-01 20:42:34"
"2586","537","2024-12-01 20:42:35"
"2587","495","2024-12-01 20:42:35"
"2588","462","2024-12-01 20:42:35"
"2589","539","2024-12-01 20:42:36"
"2590","493","2024-12-01 20:42:36"
"2591","592","2024-12-01 20:42:36"
"2592","478","2024-12-01 20:42:36"
"2593","568","2024-12-01 20:42:37"
"2594","553","2024-12-01 20:42:37"
"2595","530","2024-12-01 20:42:37"
"2596","921","2024-12-01 20:42:38"
"2597","520","2024-12-01 20:42:38"
"2598","547","2024-12-01 20:42:38"
"2599","593","2024-12-01 20:42:38"
"2600","493","2024-12-01 20:42:39"
"2601","540","2024-12-01 20:42:39"
"2602","485","2024-12-01 20:42:40"
"2603","476","2024-12-01 20:42:40"
"2604","483","2024-12-01 20:42:40"
"2605","551","2024-12-01 20:42:40"
"2606","542","2024-12-01 20:42:41"
"2607","454","2024-12-01 20:42:41"
"2608","536","2024-12-01 20:42:41"
"2609","546","2024-12-01 20:42:42"
"2610","531","2024-12-01 20:42:42"
"2611","542","2024-12-01 20:42:42"
"2612","469","2024-12-01 20:42:43"
"2613","534","2024-12-01 20:42:43"
"2614","540","2024-12-01 20:42:43"
"2615","490","2024-12-01 20:42:44"
"2616","482","2024-12-01 20:42:44"
"2617","731","2024-12-01 20:42:44"
"2618","512","2024-12-01 20:42:45"
"2619","538","2024-12-01 20:42:45"
"2620","452","2024-12-01 20:42:45"
"2621","498","2024-12-01 20:42:46"
"2622","503","2024-12-01 20:42:46"
"2623","510","2024-12-01 20:42:46"
"2624","508","2024-12-01 20:42:46"
"2625","615","2024-12-01 20:42:47"
"2626","471","2024-12-01 20:42:47"
"2627","519","2024-12-01 20:42:47"
"2628","471","2024-12-01 20:42:48"
"2629","465","2024-12-01 20:42:48"
"2630","543","2024-12-01 20:42:48"
"2631","467","2024-12-01 20:42:48"
"2632","551","2024-12-01 20:42:49"
"2633","462","2024-12-01 20:42:49"
"2634","549","2024-12-01 20:42:49"
"2635","588","2024-12-01 20:42:50"
"2636","540","2024-12-01 20:42:50"
"2637","487","2024-12-01 20:42:50"
"2638","486","2024-12-01 20:42:51"
"2639","497","2024-12-01 20:42:51"
"2640","483","2024-12-01 20:42:51"
"2641","476","2024-12-01 20:42:51"
"2642","465","2024-12-01 20:42:52"
"2643","501","2024-12-01 20:42:52"
"2644","472","2024-12-01 20:42:52"
"2645","459","2024-12-01 20:42:53"
"2646","563","2024-12-01 20:42:53"
"2647","474","2024-12-01 20:42:53"
"2648","533","2024-12-01 20:42:54"
"2649","539","2024-12-01 20:42:54"
"2650","495","2024-12-01 20:42:54"
"2651","543","2024-12-01 20:42:54"
"2652","743","2024-12-01 20:42:55"
"2653","521","2024-12-01 20:42:55"
"2654","558","2024-12-01 20:42:55"
"2655","491","2024-12-01 20:42:56"
"2656","552","2024-12-01 20:42:56"
"2657","616","2024-12-01 20:42:56"
"2658","508","2024-12-01 20:42:57"
"2659","473","2024-12-01 20:42:57"
"2660","643","2024-12-01 20:42:57"
"2661","577","2024-12-01 20:42:57"
"2662","515","2024-12-01 20:42:58"
"2663","532","2024-12-01 20:42:58"
"2664","480","2024-12-01 20:42:58"
"2665","501","2024-12-01 20:42:59"
"2666","563","2024-12-01 20:42:59"
"2667","471","2024-12-01 20:42:59"
"2668","448","2024-12-01 20:43:00"
"2669","478","2024-12-01 20:43:00"
"2670","817","2024-12-01 20:43:00"
"2671","517","2024-12-01 20:43:01"
"2672","559","2024-12-01 20:43:01"
"2673","574","2024-12-01 20:43:01"
"2674","556","2024-12-01 20:43:02"
"2675","454","2024-12-01 20:43:02"
"2676","463","2024-12-01 20:43:02"
"2677","459","2024-12-01 20:43:03"
"2678","532","2024-12-01 20:43:03"
"2679","485","2024-12-01 20:43:03"
"2680","545","2024-12-01 20:43:03"
"2681","545","2024-12-01 20:43:04"
"2682","566","2024-12-01 20:43:04"
"2683","511","2024-12-01 20:43:04"
"2684","508","2024-12-01 20:43:05"
"2685","435","2024-12-01 20:43:05"
"2686","538","2024-12-01 20:43:05"
"2687","500","2024-12-01 20:43:05"
"2688","473","2024-12-01 20:43:06"
"2689","524","2024-12-01 20:43:06"
"2690","786","2024-12-01 20:43:06"
"2691","513","2024-12-01 20:43:07"
"2692","555","2024-12-01 20:43:07"
"2693","449","2024-12-01 20:43:07"
"2694","545","2024-12-01 20:43:07"
"2695","523","2024-12-01 20:43:08"
"2696","523","2024-12-01 20:43:08"
"2697","531","2024-12-01 20:43:08"
"2698","477","2024-12-01 20:43:09"
"2699","467","2024-12-01 20:43:09"
"2700","533","2024-12-01 20:43:09"
"2701","478","2024-12-01 20:43:09"
"2702","577","2024-12-01 20:43:10"
"2703","469","2024-12-01 20:43:10"
"2704","508","2024-12-01 20:43:10"
"2705","485","2024-12-01 20:43:11"
"2706","460","2024-12-01 20:43:11"
"2707","506","2024-12-01 20:43:11"
"2708","558","2024-12-01 20:43:12"
"2709","565","2024-12-01 20:43:12"
"2710","525","2024-12-01 20:43:12"
"2711","476","2024-12-01 20:43:13"
"2712","683","2024-12-01 20:43:13"
"2713","527","2024-12-01 20:43:13"
"2714","519","2024-12-01 20:43:13"
"2715","464","2024-12-01 20:43:14"
"2716","490","2024-12-01 20:43:14"
"2717","440","2024-12-01 20:43:14"
"2718","498","2024-12-01 20:43:15"
"2719","521","2024-12-01 20:43:15"
"2720","501","2024-12-01 20:43:15"
"2721","510","2024-12-01 20:43:16"
"2722","592","2024-12-01 20:43:16"
"2723","507","2024-12-01 20:43:16"
"2724","471","2024-12-01 20:43:17"
"2725","531","2024-12-01 20:43:17"
"2726","488","2024-12-01 20:43:17"
"2727","522","2024-12-01 20:43:17"
"2728","531","2024-12-01 20:43:18"
"2729","463","2024-12-01 20:43:18"
"2730","547","2024-12-01 20:43:18"
"2731","552","2024-12-01 20:43:19"
"2732","577","2024-12-01 20:43:19"
"2733","463","2024-12-01 20:43:19"
"2734","820","2024-12-01 20:43:19"
"2735","532","2024-12-01 20:43:20"
"2736","509","2024-12-01 20:43:20"
"2737","507","2024-12-01 20:43:20"
"2738","554","2024-12-01 20:43:21"
"2739","549","2024-12-01 20:43:21"
"2740","563","2024-12-01 20:43:21"
"2741","539","2024-12-01 20:43:22"
"2742","483","2024-12-01 20:43:22"
"2743","535","2024-12-01 20:43:22"
"2744","691","2024-12-01 20:43:22"
"2745","494","2024-12-01 20:43:23"
"2746","481","2024-12-01 20:43:23"
"2747","466","2024-12-01 20:43:23"
"2748","538","2024-12-01 20:43:24"
"2749","494","2024-12-01 20:43:24"
"2750","500","2024-12-01 20:43:24"
"2751","468","2024-12-01 20:43:24"
"2752","646","2024-12-01 20:43:25"
"2753","468","2024-12-01 20:43:25"
"2754","495","2024-12-01 20:43:25"
"2755","479","2024-12-01 20:43:26"
"2756","526","2024-12-01 20:43:26"
"2757","535","2024-12-01 20:43:26"
"2758","497","2024-12-01 20:43:27"
"2759","498","2024-12-01 20:43:27"
"2760","531","2024-12-01 20:43:27"
"2761","523","2024-12-01 20:43:27"
"2762","502","2024-12-01 20:43:28"
"2763","522","2024-12-01 20:43:28"
"2764","490","2024-12-01 20:43:28"
"2765","833","2024-12-01 20:43:29"
"2766","463","2024-12-01 20:43:29"
"2767","444","2024-12-01 20:43:29"
"2768","467","2024-12-01 20:43:30"
"2769","538","2024-12-01 20:43:30"
"2770","450","2024-12-01 20:43:30"
"2771","527","2024-12-01 20:43:30"
"2772","474","2024-12-01 20:43:31"
"2773","517","2024-12-01 20:43:31"
"2774","497","2024-12-01 20:43:31"
"2775","470","2024-12-01 20:43:32"
"2776","477","2024-12-01 20:43:32"
"2777","558","2024-12-01 20:43:32"
"2778","468","2024-12-01 20:43:33"
"2779","476","2024-12-01 20:43:33"
"2780","536","2024-12-01 20:43:33"
"2781","460","2024-12-01 20:43:33"
"2782","567","2024-12-01 20:43:34"
"2783","533","2024-12-01 20:43:34"
"2784","546","2024-12-01 20:43:34"
"2785","492","2024-12-01 20:43:35"
"2786","496","2024-12-01 20:43:35"
"2787","501","2024-12-01 20:43:35"
"2788","510","2024-12-01 20:43:36"
"2789","459","2024-12-01 20:43:36"
"2790","567","2024-12-01 20:43:36"
"2791","551","2024-12-01 20:43:37"
"2792","489","2024-12-01 20:43:37"
"2793","502","2024-12-01 20:43:37"
"2794","537","2024-12-01 20:43:37"
"2795","515","2024-12-01 20:43:38"
"2796","448","2024-12-01 20:43:38"
"2797","513","2024-12-01 20:43:38"
"2798","519","2024-12-01 20:43:39"
"2799","501","2024-12-01 20:43:39"
"2800","488","2024-12-01 20:43:39"
"2801","523","2024-12-01 20:43:40"
"2802","466","2024-12-01 20:43:40"
"2803","506","2024-12-01 20:43:40"
"2804","506","2024-12-01 20:43:40"
"2805","553","2024-12-01 20:43:41"
"2806","463","2024-12-01 20:43:41"
"2807","465","2024-12-01 20:43:41"
"2808","503","2024-12-01 20:43:42"
"2809","496","2024-12-01 20:43:42"
"2810","448","2024-12-01 20:43:42"
"2811","529","2024-12-01 20:43:43"
"2812","496","2024-12-01 20:43:43"
"2813","491","2024-12-01 20:43:43"
"2814","482","2024-12-01 20:43:44"
"2815","522","2024-12-01 20:43:44"
"2816","462","2024-12-01 20:43:44"
"2817","529","2024-12-01 20:43:44"
"2818","523","2024-12-01 20:43:45"
"2819","536","2024-12-01 20:43:45"
"2820","484","2024-12-01 20:43:46"
"2821","500","2024-12-01 20:43:46"
"2822","858","2024-12-01 20:43:46"
"2823","454","2024-12-01 20:43:46"
"2824","525","2024-12-01 20:43:47"
"2825","517","2024-12-01 20:43:47"
"2826","542","2024-12-01 20:43:47"
"2827","612","2024-12-01 20:43:48"
"2828","460","2024-12-01 20:43:48"
"2829","548","2024-12-01 20:43:48"
"2830","483","2024-12-01 20:43:49"
"2831","528","2024-12-01 20:43:49"
"2832","536","2024-12-01 20:43:49"
"2833","480","2024-12-01 20:43:49"
"2834","458","2024-12-01 20:43:50"
"2835","468","2024-12-01 20:43:50"
"2836","478","2024-12-01 20:43:50"
"2837","485","2024-12-01 20:43:51"
"2838","475","2024-12-01 20:43:51"
"2839","462","2024-12-01 20:43:51"
"2840","466","2024-12-01 20:43:52"
"2841","476","2024-12-01 20:43:52"
"2842","542","2024-12-01 20:43:52"
"2843","499","2024-12-01 20:43:53"
"2844","460","2024-12-01 20:43:53"
"2845","485","2024-12-01 20:43:53"
"2846","512","2024-12-01 20:43:54"
"2847","534","2024-12-01 20:43:54"
"2848","663","2024-12-01 20:43:54"
"2849","550","2024-12-01 20:43:54"
"2850","527","2024-12-01 20:43:55"
"2851","731","2024-12-01 20:43:55"
"2852","537","2024-12-01 20:43:55"
"2853","530","2024-12-01 20:43:55"
"2854","526","2024-12-01 20:43:56"
"2855","542","2024-12-01 20:43:56"
"2856","748","2024-12-01 20:43:56"
"2857","512","2024-12-01 20:43:57"
"2858","448","2024-12-01 20:43:57"
"2859","544","2024-12-01 20:43:57"
"2860","523","2024-12-01 20:43:58"
"2861","442","2024-12-01 20:43:58"
"2862","507","2024-12-01 20:43:58"
"2863","464","2024-12-01 20:43:58"
"2864","441","2024-12-01 20:43:59"
"2865","495","2024-12-01 20:43:59"
"2866","547","2024-12-01 20:43:59"
"2867","487","2024-12-01 20:44:00"
"2868","457","2024-12-01 20:44:00"
"2869","542","2024-12-01 20:44:00"
"2870","498","2024-12-01 20:44:01"
"2871","484","2024-12-01 20:44:01"
"2872","498","2024-12-01 20:44:01"
"2873","494","2024-12-01 20:44:01"
"2874","503","2024-12-01 20:44:02"
"2875","495","2024-12-01 20:44:02"
"2876","490","2024-12-01 20:44:02"
"2877","507","2024-12-01 20:44:03"
"2878","469","2024-12-01 20:44:03"
"2879","518","2024-12-01 20:44:03"
"2880","572","2024-12-01 20:44:04"
"2881","530","2024-12-01 20:44:04"
"2882","482","2024-12-01 20:44:04"
"2883","467","2024-12-01 20:44:04"
"2884","472","2024-12-01 20:44:05"
"2885","486","2024-12-01 20:44:05"
"2886","517","2024-12-01 20:44:05"
"2887","483","2024-12-01 20:44:06"
"2888","454","2024-12-01 20:44:06"
"2889","497","2024-12-01 20:44:06"
"2890","482","2024-12-01 20:44:06"
"2891","485","2024-12-01 20:44:07"
"2892","470","2024-12-01 20:44:07"
"2893","552","2024-12-01 20:44:07"
"2894","533","2024-12-01 20:44:08"
"2895","493","2024-12-01 20:44:08"
"2896","686","2024-12-01 20:44:08"
"2897","479","2024-12-01 20:44:08"
"2898","539","2024-12-01 20:44:09"
"2899","442","2024-12-01 20:44:09"
"2900","526","2024-12-01 20:44:09"
"2901","531","2024-12-01 20:44:09"
"2902","577","2024-12-01 20:44:10"
"2903","460","2024-12-01 20:44:10"
"2904","512","2024-12-01 20:44:10"
"2905","460","2024-12-01 20:44:11"
"2906","501","2024-12-01 20:44:11"
"2907","508","2024-12-01 20:44:11"
"2908","455","2024-12-01 20:44:11"
"2909","554","2024-12-01 20:44:12"
"2910","600","2024-12-01 20:44:12"
"2911","523","2024-12-01 20:44:12"
"2912","520","2024-12-01 20:44:13"
"2913","482","2024-12-01 20:44:13"
"2914","538","2024-12-01 20:44:13"
"2915","549","2024-12-01 20:44:13"
"2916","477","2024-12-01 20:44:14"
"2917","630","2024-12-01 20:44:14"
"2918","523","2024-12-01 20:44:14"
"2919","549","2024-12-01 20:44:15"
"2920","508","2024-12-01 20:44:15"
"2921","535","2024-12-01 20:44:15"
"2922","614","2024-12-01 20:44:15"
"2923","496","2024-12-01 20:44:16"
"2924","527","2024-12-01 20:44:16"
"2925","507","2024-12-01 20:44:16"
"2926","479","2024-12-01 20:44:17"
"2927","473","2024-12-01 20:44:17"
"2928","572","2024-12-01 20:44:17"
"2929","474","2024-12-01 20:44:18"
"2930","759","2024-12-01 20:44:18"
"2931","466","2024-12-01 20:44:18"
"2932","478","2024-12-01 20:44:19"
"2933","500","2024-12-01 20:44:19"
"2934","456","2024-12-01 20:44:19"
"2935","462","2024-12-01 20:44:19"
"2936","496","2024-12-01 20:44:20"
"2937","492","2024-12-01 20:44:20"
"2938","500","2024-12-01 20:44:20"
"2939","541","2024-12-01 20:44:21"
"2940","504","2024-12-01 20:44:21"
"2941","534","2024-12-01 20:44:21"
"2942","523","2024-12-01 20:44:22"
"2943","505","2024-12-01 20:44:22"
"2944","520","2024-12-01 20:44:22"
"2945","526","2024-12-01 20:44:22"
"2946","510","2024-12-01 20:44:23"
"2947","540","2024-12-01 20:44:23"
"2948","452","2024-12-01 20:44:23"
"2949","491","2024-12-01 20:44:23"
"2950","549","2024-12-01 20:44:24"
"2951","503","2024-12-01 20:44:24"
"2952","534","2024-12-01 20:44:25"
"2953","697","2024-12-01 20:44:25"
"2954","466","2024-12-01 20:44:25"
"2955","468","2024-12-01 20:44:26"
"2956","549","2024-12-01 20:44:26"
"2957","496","2024-12-01 20:44:26"
"2958","526","2024-12-01 20:44:26"
"2959","509","2024-12-01 20:44:27"
"2960","512","2024-12-01 20:44:27"
"2961","490","2024-12-01 20:44:27"
"2962","498","2024-12-01 20:44:28"
"2963","550","2024-12-01 20:44:28"
"2964","593","2024-12-01 20:44:28"
"2965","540","2024-12-01 20:44:28"
"2966","714","2024-12-01 20:44:29"
"2967","529","2024-12-01 20:44:29"
"2968","532","2024-12-01 20:44:29"
"2969","485","2024-12-01 20:44:30"
"2970","538","2024-12-01 20:44:30"
"2971","474","2024-12-01 20:44:30"
"2972","524","2024-12-01 20:44:31"
"2973","486","2024-12-01 20:44:31"
"2974","518","2024-12-01 20:44:31"
"2975","528","2024-12-01 20:44:31"
"2976","526","2024-12-01 20:44:32"
"2977","472","2024-12-01 20:44:32"
"2978","492","2024-12-01 20:44:32"
"2979","580","2024-12-01 20:44:33"
"2980","555","2024-12-01 20:44:33"
"2981","539","2024-12-01 20:44:33"
"2982","485","2024-12-01 20:44:34"
"2983","554","2024-12-01 20:44:34"
"2984","564","2024-12-01 20:44:34"
"2985","549","2024-12-01 20:44:35"
"2986","501","2024-12-01 20:44:35"
"2987","763","2024-12-01 20:44:35"
"2988","488","2024-12-01 20:44:35"
"2989","468","2024-12-01 20:44:36"
"2990","475","2024-12-01 20:44:36"
"2991","478","2024-12-01 20:44:36"
"2992","471","2024-12-01 20:44:37"
"2993","469","2024-12-01 20:44:37"
"2994","532","2024-12-01 20:44:37"
"2995","516","2024-12-01 20:44:38"
"2996","527","2024-12-01 20:44:38"
"2997","528","2024-12-01 20:44:38"
"2998","559","2024-12-01 20:44:39"
"2999","507","2024-12-01 20:44:39"
"3000","826","2024-12-01 20:44:39"
"3001","529","2024-12-01 20:44:39"
"3002","551","2024-12-01 20:44:40"
"3003","518","2024-12-01 20:44:40"
"3004","535","2024-12-01 20:44:40"
"3005","589","2024-12-01 20:44:41"
"3006","546","2024-12-01 20:44:41"
"3007","547","2024-12-01 20:44:41"
"3008","472","2024-12-01 20:44:42"
"3009","510","2024-12-01 20:44:42"
"3010","544","2024-12-01 20:44:42"
"3011","575","2024-12-01 20:44:42"
"3012","551","2024-12-01 20:44:43"
"3013","507","2024-12-01 20:44:43"
"3014","498","2024-12-01 20:44:43"
"3015","542","2024-12-01 20:44:44"
"3016","520","2024-12-01 20:44:44"
"3017","523","2024-12-01 20:44:44"
"3018","473","2024-12-01 20:44:44"
"3019","571","2024-12-01 20:44:45"
"3020","521","2024-12-01 20:44:45"
"3021","495","2024-12-01 20:44:45"
"3022","494","2024-12-01 20:44:46"
"3023","514","2024-12-01 20:44:46"
"3024","531","2024-12-01 20:44:46"
"3025","484","2024-12-01 20:44:47"
"3026","569","2024-12-01 20:44:47"
"3027","514","2024-12-01 20:44:47"
"3028","575","2024-12-01 20:44:48"
"3029","447","2024-12-01 20:44:48"
"3030","545","2024-12-01 20:44:48"
"3031","574","2024-12-01 20:44:48"
"3032","490","2024-12-01 20:44:49"
"3033","491","2024-12-01 20:44:49"
"3034","504","2024-12-01 20:44:49"
"3035","541","2024-12-01 20:44:50"
"3036","468","2024-12-01 20:44:50"
"3037","513","2024-12-01 20:44:50"
"3038","481","2024-12-01 20:44:50"
"3039","479","2024-12-01 20:44:51"
"3040","519","2024-12-01 20:44:51"
"3041","773","2024-12-01 20:44:51"
"3042","493","2024-12-01 20:44:52"
"3043","525","2024-12-01 20:44:52"
"3044","467","2024-12-01 20:44:52"
"3045","511","2024-12-01 20:44:53"
"3046","510","2024-12-01 20:44:53"
"3047","523","2024-12-01 20:44:53"
"3048","493","2024-12-01 20:44:54"
"3049","533","2024-12-01 20:44:54"
"3050","544","2024-12-01 20:44:54"
"3051","806","2024-12-01 20:44:54"
"3052","500","2024-12-01 20:44:55"
"3053","551","2024-12-01 20:44:55"
"3054","492","2024-12-01 20:44:55"
"3055","494","2024-12-01 20:44:56"
"3056","505","2024-12-01 20:44:56"
"3057","457","2024-12-01 20:44:56"
"3058","455","2024-12-01 20:44:56"
"3059","586","2024-12-01 20:44:57"
"3060","554","2024-12-01 20:44:57"
"3061","512","2024-12-01 20:44:57"
"3062","445","2024-12-01 20:44:58"
"3063","483","2024-12-01 20:44:58"
"3064","753","2024-12-01 20:44:58"
"3065","567","2024-12-01 20:44:59"
"3066","491","2024-12-01 20:44:59"
"3067","522","2024-12-01 20:44:59"
"3068","535","2024-12-01 20:44:59"
"3069","529","2024-12-01 20:45:00"
"3070","580","2024-12-01 20:45:00"
"3071","518","2024-12-01 20:45:00"
"3072","531","2024-12-01 20:45:01"
"3073","465","2024-12-01 20:45:01"
"3074","551","2024-12-01 20:45:01"
"3075","551","2024-12-01 20:45:01"
"3076","479","2024-12-01 20:45:02"
"3077","529","2024-12-01 20:45:02"
"3078","463","2024-12-01 20:45:02"
"3079","526","2024-12-01 20:45:03"
"3080","498","2024-12-01 20:45:03"
"3081","483","2024-12-01 20:45:03"
"3082","543","2024-12-01 20:45:03"
"3083","457","2024-12-01 20:45:04"
"3084","514","2024-12-01 20:45:04"
"3085","495","2024-12-01 20:45:04"
"3086","527","2024-12-01 20:45:04"
"3087","548","2024-12-01 20:45:05"
"3088","544","2024-12-01 20:45:05"
"3089","493","2024-12-01 20:45:05"
"3090","523","2024-12-01 20:45:06"
"3091","559","2024-12-01 20:45:06"
"3092","516","2024-12-01 20:45:06"
"3093","467","2024-12-01 20:45:06"
"3094","564","2024-12-01 20:45:07"
"3095","527","2024-12-01 20:45:07"
"3096","519","2024-12-01 20:45:07"
"3097","548","2024-12-01 20:45:08"
"3098","482","2024-12-01 20:45:08"
"3099","474","2024-12-01 20:45:08"
"3100","524","2024-12-01 20:45:08"
"3101","494","2024-12-01 20:45:09"
"3102","481","2024-12-01 20:45:09"
"3103","475","2024-12-01 20:45:09"
"3104","457","2024-12-01 20:45:10"
"3105","429","2024-12-01 20:45:10"
"3106","455","2024-12-01 20:45:10"
"3107","471","2024-12-01 20:45:11"
"3108","601","2024-12-01 20:45:11"
"3109","457","2024-12-01 20:45:11"
"3110","490","2024-12-01 20:45:11"
"3111","511","2024-12-01 20:45:12"
"3112","508","2024-12-01 20:45:12"
"3113","522","2024-12-01 20:45:12"
"3114","523","2024-12-01 20:45:13"
"3115","521","2024-12-01 20:45:13"
"3116","502","2024-12-01 20:45:13"
"3117","526","2024-12-01 20:45:14"
"3118","576","2024-12-01 20:45:14"
"3119","482","2024-12-01 20:45:14"
"3120","519","2024-12-01 20:45:14"
"3121","523","2024-12-01 20:45:15"
"3122","572","2024-12-01 20:45:15"
"3123","511","2024-12-01 20:45:15"
"3124","470","2024-12-01 20:45:16"
"3125","798","2024-12-01 20:45:16"
"3126","451","2024-12-01 20:45:16"
"3127","528","2024-12-01 20:45:16"
"3128","447","2024-12-01 20:45:17"
"3129","502","2024-12-01 20:45:17"
"3130","526","2024-12-01 20:45:17"
"3131","527","2024-12-01 20:45:18"
"3132","481","2024-12-01 20:45:18"
"3133","460","2024-12-01 20:45:18"
"3134","475","2024-12-01 20:45:19"
"3135","545","2024-12-01 20:45:19"
"3136","477","2024-12-01 20:45:19"
"3137","493","2024-12-01 20:45:19"
"3138","564","2024-12-01 20:45:20"
"3139","560","2024-12-01 20:45:20"
"3140","531","2024-12-01 20:45:20"
"3141","544","2024-12-01 20:45:20"
"3142","553","2024-12-01 20:45:21"
"3143","549","2024-12-01 20:45:21"
"3144","480","2024-12-01 20:45:21"
"3145","517","2024-12-01 20:45:22"
"3146","528","2024-12-01 20:45:22"
"3147","546","2024-12-01 20:45:22"
"3148","466","2024-12-01 20:45:23"
"3149","446","2024-12-01 20:45:23"
"3150","487","2024-12-01 20:45:23"
"3151","494","2024-12-01 20:45:24"
"3152","500","2024-12-01 20:45:24"
"3153","505","2024-12-01 20:45:24"
"3154","767","2024-12-01 20:45:24"
"3155","469","2024-12-01 20:45:25"
"3156","512","2024-12-01 20:45:25"
"3157","510","2024-12-01 20:45:25"
"3158","469","2024-12-01 20:45:26"
"3159","627","2024-12-01 20:45:26"
"3160","459","2024-12-01 20:45:26"
"3161","486","2024-12-01 20:45:27"
"3162","535","2024-12-01 20:45:27"
"3163","509","2024-12-01 20:45:27"
"3164","492","2024-12-01 20:45:28"
"3166","553","2024-12-01 20:45:31"
"3167","893","2024-12-01 20:45:32"
"3168","520","2024-12-01 20:45:32"
"3169","521","2024-12-01 20:45:32"
"3170","524","2024-12-01 20:45:33"
"3171","572","2024-12-01 20:45:33"
"3172","503","2024-12-01 20:45:33"
"3173","467","2024-12-01 20:45:33"
"3174","760","2024-12-01 20:45:34"
"3175","497","2024-12-01 20:45:34"
"3176","451","2024-12-01 20:45:34"
"3177","518","2024-12-01 20:45:35"
"3178","567","2024-12-01 20:45:35"
"3179","536","2024-12-01 20:45:35"
"3180","525","2024-12-01 20:45:36"
"3181","457","2024-12-01 20:45:36"
"3182","546","2024-12-01 20:45:36"
"3183","555","2024-12-01 20:45:37"
"3184","461","2024-12-01 20:45:37"
"3185","533","2024-12-01 20:45:37"
"3186","490","2024-12-01 20:45:37"
"3187","527","2024-12-01 20:45:38"
"3188","461","2024-12-01 20:45:38"
"3189","486","2024-12-01 20:45:38"
"3190","519","2024-12-01 20:45:39"
"3191","517","2024-12-01 20:45:39"
"3192","468","2024-12-01 20:45:39"
"3193","485","2024-12-01 20:45:39"
"3194","463","2024-12-01 20:45:40"
"3195","602","2024-12-01 20:45:40"
"3196","456","2024-12-01 20:45:40"
"3197","603","2024-12-01 20:45:41"
"3198","515","2024-12-01 20:45:41"
"3199","684","2024-12-01 20:45:51"
"3200","568","2024-12-01 20:45:52"
"3201","507","2024-12-01 20:45:52"
"3202","598","2024-12-01 20:45:52"
"3203","486","2024-12-01 20:45:53"
"3204","550","2024-12-01 20:45:53"
"3205","560","2024-12-01 20:45:53"
"3206","328","2024-12-01 20:45:54"
"3207","531","2024-12-01 20:45:54"
"3208","537","2024-12-01 20:45:54"
"3209","438","2024-12-01 20:45:54"
"3210","540","2024-12-01 20:45:55"
"3211","546","2024-12-01 20:45:55"
"3212","471","2024-12-01 20:45:55"
"3213","482","2024-12-01 20:45:56"
"3214","508","2024-12-01 20:45:56"
"3215","536","2024-12-01 20:45:56"
"3216","454","2024-12-01 20:45:57"
"3217","480","2024-12-01 20:45:57"
"3218","526","2024-12-01 20:45:57"
"3219","557","2024-12-01 20:45:57"
"3220","557","2024-12-01 20:45:58"
"3221","557","2024-12-01 20:45:58"
"3222","531","2024-12-01 20:45:58"
"3223","459","2024-12-01 20:45:59"
"3224","529","2024-12-01 20:45:59"
"3225","519","2024-12-01 20:45:59"
"3226","610","2024-12-01 20:46:00"
"3227","462","2024-12-01 20:46:00"
"3228","547","2024-12-01 20:46:00"
"3229","436","2024-12-01 20:46:00"
"3230","462","2024-12-01 20:46:01"
"3231","465","2024-12-01 20:46:01"
"3232","538","2024-12-01 20:46:01"
"3233","544","2024-12-01 20:46:02"
"3234","553","2024-12-01 20:46:02"
"3235","624","2024-12-01 20:46:02"
"3236","534","2024-12-01 20:46:03"
"3237","484","2024-12-01 20:46:03"
"3238","579","2024-12-01 20:46:03"
"3239","452","2024-12-01 20:46:03"
"3240","470","2024-12-01 20:46:04"
"3241","457","2024-12-01 20:46:04"
"3242","553","2024-12-01 20:46:04"
"3243","530","2024-12-01 20:46:05"
"3244","515","2024-12-01 20:46:05"
"3245","747","2024-12-01 20:46:05"
"3246","428","2024-12-01 20:46:06"
"3247","476","2024-12-01 20:46:06"
"3248","542","2024-12-01 20:46:06"
"3249","535","2024-12-01 20:46:07"
"3250","519","2024-12-01 20:46:07"
"3251","450","2024-12-01 20:46:07"
"3252","461","2024-12-01 20:46:07"
"3253","510","2024-12-01 20:46:08"
"3254","539","2024-12-01 20:46:08"
"3255","546","2024-12-01 20:46:08"
"3256","472","2024-12-01 20:46:09"
"3257","435","2024-12-01 20:46:09"
"3258","439","2024-12-01 20:46:09"
"3259","800","2024-12-01 20:46:09"
"3260","447","2024-12-01 20:46:10"
"3261","501","2024-12-01 20:46:10"
"3263","471","2024-12-01 20:46:11"
"3264","565","2024-12-01 20:46:11"
"3265","549","2024-12-01 20:46:12"
"3266","517","2024-12-01 20:46:12"
"3267","513","2024-12-01 20:46:12"
"3268","457","2024-12-01 20:46:13"
"3269","538","2024-12-01 20:46:13"
"3270","460","2024-12-01 20:46:13"
"3271","578","2024-12-01 20:46:13"
"3272","516","2024-12-01 20:46:14"
"3273","468","2024-12-01 20:46:14"
"3274","509","2024-12-01 20:46:14"
"3275","548","2024-12-01 20:46:14"
"3276","475","2024-12-01 20:46:15"
"3277","578","2024-12-01 20:46:15"
"3278","511","2024-12-01 20:46:15"
"3279","514","2024-12-01 20:46:16"
"3280","482","2024-12-01 20:46:16"
"3281","528","2024-12-01 20:46:16"
"3282","453","2024-12-01 20:46:17"
"3283","571","2024-12-01 20:46:17"
"3284","546","2024-12-01 20:46:17"
"3285","580","2024-12-01 20:46:17"
"3286","525","2024-12-01 20:46:18"
"3287","616","2024-12-01 20:46:18"
"3288","480","2024-12-01 20:46:18"
"3289","523","2024-12-01 20:46:19"
"3290","574","2024-12-01 20:46:19"
"3291","516","2024-12-01 20:46:19"
"3292","480","2024-12-01 20:46:20"
"3293","520","2024-12-01 20:46:20"
"3294","547","2024-12-01 20:46:20"
"3295","515","2024-12-01 20:46:21"
"3296","545","2024-12-01 20:46:21"
"3297","514","2024-12-01 20:46:21"
"3298","545","2024-12-01 20:46:21"
"3299","556","2024-12-01 20:46:22"
"3300","480","2024-12-01 20:46:22"
"3301","460","2024-12-01 20:46:22"
"3302","525","2024-12-01 20:46:23"
"3303","497","2024-12-01 20:46:23"
"3304","405","2024-12-01 20:46:23"
"3305","468","2024-12-01 20:46:24"
"3306","445","2024-12-01 20:46:24"
"3307","532","2024-12-01 20:46:24"
"3308","640","2024-12-01 20:46:24"
"3309","540","2024-12-01 20:46:25"
"3310","855","2024-12-01 20:46:25"
"3311","554","2024-12-01 20:46:25"
"3312","485","2024-12-01 20:46:26"
"3313","559","2024-12-01 20:46:26"
"3314","442","2024-12-01 20:46:26"
"3315","493","2024-12-01 20:46:26"
"3316","502","2024-12-01 20:46:27"
"3317","453","2024-12-01 20:46:27"
"3318","820","2024-12-01 20:46:27"
"3319","515","2024-12-01 20:46:28"
"3320","455","2024-12-01 20:46:28"
"3321","480","2024-12-01 20:46:28"
"3322","520","2024-12-01 20:46:28"
"3323","499","2024-12-01 20:46:29"
"3324","546","2024-12-01 20:46:29"
"3325","537","2024-12-01 20:46:29"
"3326","479","2024-12-01 20:46:30"
"3327","467","2024-12-01 20:46:30"
"3328","550","2024-12-01 20:46:30"
"3329","503","2024-12-01 20:46:31"
"3330","513","2024-12-01 20:46:31"
"3331","455","2024-12-01 20:46:31"
"3332","767","2024-12-01 20:46:32"
"3333","478","2024-12-01 20:46:32"
"3334","487","2024-12-01 20:46:32"
"3335","504","2024-12-01 20:46:32"
"3336","521","2024-12-01 20:46:33"
"3337","594","2024-12-01 20:46:33"
"3338","484","2024-12-01 20:46:33"
"3339","588","2024-12-01 20:46:34"
"3340","548","2024-12-01 20:46:34"
"3341","519","2024-12-01 20:46:34"
"3342","515","2024-12-01 20:46:35"
"3343","497","2024-12-01 20:46:35"
"3344","456","2024-12-01 20:46:35"
"3345","462","2024-12-01 20:46:36"
"3346","450","2024-12-01 20:46:36"
"3347","472","2024-12-01 20:46:36"
"3348","455","2024-12-01 20:46:36"
"3349","485","2024-12-01 20:46:37"
"3350","534","2024-12-01 20:46:37"
"3351","483","2024-12-01 20:46:37"
"3352","530","2024-12-01 20:46:38"
"3353","838","2024-12-01 20:46:38"
"3354","483","2024-12-01 20:46:38"
"3355","533","2024-12-01 20:46:38"
"3356","442","2024-12-01 20:46:39"
"3357","531","2024-12-01 20:46:39"
"3358","469","2024-12-01 20:46:39"
"3359","473","2024-12-01 20:46:40"
"3360","480","2024-12-01 20:46:40"
"3361","499","2024-12-01 20:46:40"
"3362","457","2024-12-01 20:46:40"
"3363","567","2024-12-01 20:46:41"
"3364","515","2024-12-01 20:46:41"
"3365","499","2024-12-01 20:46:41"
"3366","523","2024-12-01 20:46:42"
"3367","475","2024-12-01 20:46:42"
"3368","479","2024-12-01 20:46:42"
"3369","589","2024-12-01 20:46:42"
"3370","542","2024-12-01 20:46:43"
"3371","512","2024-12-01 20:46:43"
"3372","507","2024-12-01 20:46:43"
"3373","523","2024-12-01 20:46:44"
"3374","543","2024-12-01 20:46:44"
